Label,ECG Beats
0.000000000000000000e+00,-6.710079676504258905e-02,-6.900774671708831409e-02,-7.030932842136751459e-02,-7.112711509016264588e-02,-7.179028493904153485e-02,-7.258567215327896283e-02,-7.360251864889813533e-02,-7.478868023053340808e-02,-7.611931098546419194e-02,-7.767564156645941076e-02,-7.953944222673164921e-02,-8.162240331393068316e-02,-8.364718653540621773e-02,-8.535795866797327158e-02,-8.678631034462948313e-02,-8.829848541484576485e-02,-9.033258532069046720e-02,-9.303206370071551157e-02,-9.608883696204038871e-02,-9.891779831698511993e-02,-1.009956971373789786e-01,-1.020885996464366563e-01,-1.022406916278540828e-01,-1.016343291577598840e-01,-1.005208731744134110e-01,-9.928966974206140939e-02,-9.854031990405059949e-02,-9.896727762605408985e-02,-1.010263054624146312e-01,-1.045894462517398954e-01,-1.088803065101017209e-01,-1.128053027001375691e-01,-1.154871154950184581e-01,-1.166353240508231359e-01,-1.165213710372078743e-01,-1.156469483319895603e-01,-1.144148732732002544e-01,-1.130433363578835643e-01,-1.116984522109798622e-01,-1.106209995196413970e-01,-1.100710023769500417e-01,-1.101407680656845550e-01,-1.106535235186753841e-01,-1.112918627996968279e-01,-1.118565403692666632e-01,-1.124055975953051761e-01,-1.131388196335693236e-01,-1.141520610514871747e-01,-1.153130635026642786e-01,-1.163767448124274628e-01,-1.172109755934851449e-01,-1.178981189860137946e-01,-1.186086379403867158e-01,-1.193707060403766396e-01,-1.199662295619347147e-01,-1.200721698456948677e-01,-1.195359442394139660e-01,-1.185378923658042261e-01,-1.174884741554255707e-01,-1.167458057102166019e-01,-1.163865689880019122e-01,-1.161912901776474827e-01,-1.158130146570272578e-01,-1.149743472045973436e-01,-1.135670032224850995e-01,-1.116488722055614530e-01,-1.094162895452177042e-01,-1.071959843203495188e-01,-1.054064449022543565e-01,-1.044167336985577371e-01,-1.043371647113383316e-01,-1.049023506215539109e-01,-1.055939299827994143e-01,-1.059701670586835898e-01,-1.059730823305074510e-01,-1.059663442399624428e-01,-1.064612800837255319e-01,-1.077397611948216760e-01,-1.096546406074995483e-01,-1.117189335557048913e-01,-1.133390156848168018e-01,-1.139412104241564611e-01,-1.128931428228996947e-01,-1.093984765691420891e-01,-1.026807804300473442e-01,-9.260528829821726426e-02,-8.049321216304734794e-02,-6.952460823429706949e-02,-6.407123528644120825e-02,-6.766187625862353505e-02,-7.996823237642905480e-02,-9.396876748359360432e-02,-9.497181530238701930e-02,-6.309068788734145672e-02,2.024694923665910917e-02,1.631326929251502023e-01,3.550338341002189924e-01,5.645913124507899727e-01,7.468232494395351528e-01,8.586552751797611460e-01,8.762129746272981912e-01,8.048816074645785967e-01,6.764321155369014127e-01,5.348621600441753055e-01,4.188287598212863672e-01,3.494024132382553827e-01,3.275245219275171316e-01,3.397706068407167490e-01,3.675638644158285562e-01,3.950263816560545815e-01,4.129599189136653470e-01,4.190075320944100512e-01,4.155073874262357747e-01,4.067010802995860153e-01,3.963936924047326005e-01,3.865588759609966951e-01,3.770050686615522006e-01,3.659652394460820579e-01,3.512188528274635124e-01,3.311677226363967108e-01,3.053314965647059287e-01,2.740595182899739357e-01,2.377237043264818217e-01,1.959807464405868560e-01,1.476645834939900870e-01,9.152597984279750576e-02,2.758778561131961654e-02,-4.147621336163503231e-02,-1.096992821969878656e-01,-1.685569093796835949e-01,-2.092302452381361866e-01,-2.257790153760759755e-01,-2.179082910925481675e-01,-1.918689837038793644e-01,-1.587137595544725333e-01,-1.304080276971998353e-01,-1.154629765021822907e-01,-1.160795353266391716e-01,-1.280454398479459466e-01,-1.432597607097000070e-01,-1.535524157581145965e-01,-1.540252947820494878e-01,-1.445836694686370716e-01,-1.293011595797022295e-01,-1.142231027913097885e-01,-1.047445457885149284e-01,-1.036693898734867419e-01,-1.105876628146649637e-01,-1.225675600418197758e-01,-1.356420856355515514e-01,-1.463668490817201517e-01,-1.528497890135349369e-01,-1.549748408974955527e-01,-1.538927474664483208e-01,-1.511214290951018724e-01,-1.477223118773794142e-01,-1.439399549508528775e-01,-1.394102987778094160e-01,-1.337040028189956375e-01,-1.268035955315357788e-01,-1.192280417825704875e-01,-1.118031478049239663e-01,-1.052988717940957775e-01,-1.001686076851618784e-01,-9.647774992414777373e-02,-9.396498815270470928e-02,-9.215306884774238094e-02,-9.048299162329066780e-02,-8.847880237397258429e-02,-8.591093609604180670e-02,-8.286865191102230077e-02,-7.966458029419780373e-02,-7.660136816840415475e-02,-7.375130022214207437e-02,-7.091284861590589628e-02,-6.777888742177859416e-02,-6.418362444450954885e-02,-6.023488579683287242e-02,-5.623860458556230457e-02,-5.249790976421765676e-02,-4.916379234232606116e-02,-4.624057002231279911e-02,-4.368112936916959677e-02,-4.141720048560000589e-02,-3.926291618333600103e-02,-3.681755772258854531e-02,-3.355693623807096126e-02,-2.913241097893658205e-02,-2.365005416915409373e-02,-1.765451416428253512e-02,-1.177562777653230579e-02,-6.298093784922344403e-03,-9.962264674659047567e-04,4.640055264669368587e-03,1.098199787037005409e-02,1.798314847625978943e-02,2.523933578179682682e-02,3.228222818154168061e-02,3.883100897506596566e-02,4.482779543525326066e-02,5.031540676813801155e-02,5.533157724797860971e-02,5.990532414660827004e-02,6.408872637320782439e-02,6.792078263587794651e-02,7.132182761811681204e-02,7.402986118313593933e-02,7.569058608163674318e-02,7.608880120327957131e-02,7.536257809513031980e-02,7.401443046733031939e-02,7.267504461662406545e-02,7.177320494601874268e-02,7.134355857752802677e-02,7.109145884223398715e-02,7.063152773727345013e-02,6.970006323422044126e-02,6.820463999255624299e-02,6.614480268870596980e-02,6.354701862636079335e-02,6.050231091424174146e-02,5.723979978238975808e-02,5.408440684193370485e-02,5.124250654319458670e-02,4.856121886742608557e-02,4.550498804204766018e-02,4.144931559946980065e-02,3.611191624932552635e-02,2.979416289598880649e-02,2.324490073439048482e-02
0.000000000000000000e+00,-2.578872645286422668e-02,-2.780631732189040722e-02,-2.877034581906589075e-02,-2.883476511749375956e-02,-2.855373565701807906e-02,-2.857937229325096737e-02,-2.929638455857628415e-02,-3.064203486758747957e-02,-3.222574848287842325e-02,-3.363636660804372736e-02,-3.469356554376007429e-02,-3.547532491901363161e-02,-3.616096121994815532e-02,-3.687486549588678969e-02,-3.767099186271345712e-02,-3.862405138583200476e-02,-3.987506930770020469e-02,-4.153483655726174228e-02,-4.352005862912144973e-02,-4.550780791196004649e-02,-4.711340587075767833e-02,-4.817875063807665337e-02,-4.891887384107304615e-02,-4.977619579429873320e-02,-5.108862991300323897e-02,-5.283976025188302783e-02,-5.468084521371340684e-02,-5.618490297274283257e-02,-5.712183420455784616e-02,-5.755847833845580824e-02,-5.774643778333292399e-02,-5.792036220358778159e-02,-5.816967073566266938e-02,-5.844994029866827645e-02,-5.866717266789892721e-02,-5.873508423084556479e-02,-5.859296273052866377e-02,-5.824977902664561780e-02,-5.787527337639378905e-02,-5.784395826877998525e-02,-5.860776441267917525e-02,-6.040224410717853071e-02,-6.298376734638784502e-02,-6.565240286155062110e-02,-6.762602240729759240e-02,-6.852620016087548893e-02,-6.860173914073935952e-02,-6.850560219473410262e-02,-6.880187564415608803e-02,-6.958868429599597560e-02,-7.050069110158536934e-02,-7.102644236792292343e-02,-7.084129451126187915e-02,-6.991156007236355718e-02,-6.838644177630508192e-02,-6.648160980325773517e-02,-6.448458299889360534e-02,-6.279317512083563979e-02,-6.181766523776414252e-02,-6.174178446000211373e-02,-6.235141606640898226e-02,-6.314084631254532343e-02,-6.366351366673507484e-02,-6.384554119487741153e-02,-6.398661195516087974e-02,-6.444123501802145881e-02,-6.525034217449150742e-02,-6.602953217573018230e-02,-6.620073842455632962e-02,-6.537691068603136701e-02,-6.360475773989483772e-02,-6.131402260461597808e-02,-5.906611436680261201e-02,-5.731363904685327082e-02,-5.630123019448363131e-02,-5.608522572381637733e-02,-5.658206272747373644e-02,-5.759846688096213752e-02,-5.886289752721795415e-02,-6.008461199177911327e-02,-6.101113900690311592e-02,-6.140327023294407660e-02,-6.088224698745473701e-02,-5.875488751353668410e-02,-5.408540487990454171e-02,-4.624980566847836788e-02,-3.586994706123947108e-02,-2.555148408073307925e-02,-1.961502844279766969e-02,-2.229392229888846333e-02,-3.464265208456840384e-02,-5.132437656092271594e-02,-5.907296844224267651e-02,-3.856109061772083207e-02,2.958315076714916267e-02,1.557527569445648630e-01,3.327464452346721724e-01,5.324318436512184283e-01,7.115752305458608040e-01,8.265523043908847844e-01,8.509808215119377683e-01,7.871247505912475351e-01,6.644886334671548100e-01,5.263513160181227946e-01,4.118801872135524067e-01,3.430140361584919084e-01,3.211523670266736574e-01,3.326462672830049483e-01,3.582482661119541500e-01,3.814773508983952399e-01,3.930893127827084776e-01,3.914530026374797855e-01,3.802363920224111071e-01,3.651482730374407959e-01,3.510521333888993456e-01,3.401713606266995038e-01,3.316409199892768056e-01,3.223026741213418922e-01,3.082857064175597572e-01,2.866240287707991219e-01,2.561571019416724604e-01,2.173501385334741243e-01,1.712954404106725448e-01,1.186508944437913576e-01,5.932828959265086521e-02,-6.704086672798212701e-03,-7.787606240403668889e-02,-1.497075475958577762e-01,-2.147887777771502749e-01,-2.644904025429619110e-01,-2.918445708591869692e-01,-2.942603769174769734e-01,-2.747170174067113391e-01,-2.408412766652144044e-01,-2.023104719700243026e-01,-1.677157884655184061e-01,-1.421050232465164154e-01,-1.260199669317203230e-01,-1.162204460695353270e-01,-1.076720645267564419e-01,-9.594955523526343955e-02,-7.912098436894904330e-02,-5.846050485853443446e-02,-3.784244301538276095e-02,-2.216411115971691007e-02,-1.545618865564548153e-02,-1.940023728629868688e-02,-3.277639966757240481e-02,-5.196879016271254564e-02,-7.223020649591385678e-02,-8.916420471667417524e-02,-9.991007034975249446e-02,-1.037205219188338245e-01,-1.018486483768880346e-01,-9.684036200744219891e-02,-9.148674531924751163e-02,-8.782742807871724011e-02,-8.660676717298232408e-02,-8.736917978348902880e-02,-8.902920753752359417e-02,-9.052361994384466870e-02,-9.121441378667990985e-02,-9.096718787306486143e-02,-9.003985631399730183e-02,-8.893681107170788025e-02,-8.826502131057253897e-02,-8.854145820027632674e-02,-8.995836082801085543e-02,-9.223891572410070072e-02,-9.472781596985350994e-02,-9.670065994734827752e-02,-9.769417849704642443e-02,-9.763950796933075493e-02,-9.674421343458307343e-02,-9.526709571183999969e-02,-9.338502009914301238e-02,-9.121955666788678085e-02,-8.891506546992625215e-02,-8.662234436569511697e-02,-8.437351353034062973e-02,-8.198673700115639840e-02,-7.914372496314109329e-02,-7.562176715044446884e-02,-7.149363895874027985e-02,-6.710659431481499904e-02,-6.283404027995312391e-02,-5.880272271835892267e-02,-5.483031541063417696e-02,-5.061370001107474981e-02,-4.597790464320098552e-02,-4.096382771891912689e-02,-3.570950486825400644e-02,-3.027033605984216780e-02,-2.455989703854665612e-02,-1.846116298874328140e-02,-1.197880411388022905e-02,-5.248497443876581729e-03,1.633998807035659225e-03,8.787298105079296637e-03,1.650330653567177314e-02,2.497379101607526131e-02,3.401784463396432395e-02,4.307764414148928384e-02,5.151831689934995018e-02,5.899172188216775942e-02,6.556832027005253527e-02,7.154894882557108482e-02,7.713817686818681685e-02,8.225658566274195171e-02,8.662457953067280447e-02,9.000660247892162957e-02,9.237979615207629613e-02,9.389025963652242179e-02,9.467923147400299222e-02,9.478410669107521780e-02,9.422885936469939383e-02,9.320973690335813966e-02,9.216177623410833075e-02,9.158481420389784355e-02,9.173641555471215292e-02,9.244155250817324976e-02,9.318017622892009466e-02,9.338440704404377124e-02,9.272424455902721074e-02,9.120071045947954202e-02,8.903517957754276957e-02,8.648630184323663483e-02,8.372497381482524315e-02,8.078557198077017387e-02,7.753617059219422569e-02
1.000000000000000000e+00,-1.206267566910893159e-02,-1.187014603186854929e-02,-1.232287771050608050e-02,-1.366692487938319343e-02,-1.543492427172876887e-02,-1.666402236339722606e-02,-1.644382949882056827e-02,-1.441365862540367956e-02,-1.091081690604301171e-02,-6.741203234730275447e-03,-2.775424187073988538e-03,3.833428130335263034e-04,2.535619730710802870e-03,3.849264644304571745e-03,4.729943747045512598e-03,5.642718171323145467e-03,6.894769901143552385e-03,8.430544495706902494e-03,9.771710663994249632e-03,1.023231277623280408e-02,9.377455843688722870e-03,7.462927716929111839e-03,5.513994332420435289e-03,4.907666447471028745e-03,6.680000571715981154e-03,1.098955289728968492e-02,1.706267158394438391e-02,2.363317696821270672e-02,2.960684242519252829e-02,3.458886480596787966e-02,3.902405676554598912e-02,4.392500286390747105e-02,5.035991326238314220e-02,5.893185773676542366e-02,6.942829494855204397e-02,8.075579168788318829e-02,9.121798851272328035e-02,9.907873827766974784e-02,1.031897200388935676e-01,1.033825137873440603e-01,1.004286912139289445e-01,9.561734776085235865e-02,9.022833173855265843e-02,8.521856973571806382e-02,8.124563263369997956e-02,7.887466803995268894e-02,7.866929348356169194e-02,8.096163843003295613e-02,8.536949480641790877e-02,9.040075573777979490e-02,9.355283795803466529e-02,9.207294674458524342e-02,8.410455956688450696e-02,6.961435032664363420e-02,5.056105402328658904e-02,3.022091518740490854e-02,1.206291015698326106e-02,-1.295441749187645339e-03,-8.721946050996737601e-03,-1.071435740986607585e-02,-9.095710285458276714e-03,-6.354585659588330403e-03,-4.816555239497656224e-03,-5.923944282498699344e-03,-9.884037018864200164e-03,-1.579109916678103631e-02,-2.211310662851004999e-02,-2.728814871745433024e-02,-3.019133633499973546e-02,-3.037842806503950402e-02,-2.813979032728269186e-02,-2.440392337097327391e-02,-2.047310422705174437e-02,-1.758969171621323560e-02,-1.645385574068961715e-02,-1.693025611003293185e-02,-1.815368291209721111e-02,-1.903671326075051171e-02,-1.891426895066257094e-02,-1.795081318293522202e-02,-1.711667379991479651e-02,-1.786624227889460279e-02,-2.181291547633320074e-02,-3.055193114056562256e-02,-4.550862687258074718e-02,-6.757985284757866973e-02,-9.648853639286712747e-02,-1.300138232049715126e-01,-1.633873026595890621e-01,-1.891240745133227208e-01,-1.974438989846746817e-01,-1.772875799855904433e-01,-1.178535240870885320e-01,-1.066005030270514124e-02,1.477800635769065951e-01,3.528707625821460026e-01,5.893596769799456236e-01,8.308543673479780178e-01,1.042806717484057399e+00,1.189130938075608990e+00,1.240992884158421017e+00,1.185106297602418035e+00,1.028613890552686261e+00,7.984571710883998641e-01,5.349168504410791725e-01,2.812176645879300163e-01,7.275112304163947052e-02,-7.041130655668223493e-02,-1.456137723297541153e-01,-1.645307635830637050e-01,-1.468798191871786563e-01,-1.134932809040419821e-01,-8.087951042013241665e-02,-5.845601733244294718e-02,-4.857648535256816474e-02,-4.858512078762537018e-02,-5.366103101774009898e-02,-5.929398236474140577e-02,-6.273443426648339649e-02,-6.334427061620442889e-02,-6.213914110549207531e-02,-6.090607265780964563e-02,-6.124408908589024786e-02,-6.383276318296367269e-02,-6.816974247462494196e-02,-7.285894336155090967e-02,-7.628275467087565487e-02,-7.729949647356032516e-02,-7.563758200889322825e-02,-7.189328427486778306e-02,-6.726319479518076683e-02,-6.317693144180792919e-02,-6.089656556922191932e-02,-6.111104943127222688e-02,-6.364517891452677045e-02,-6.747734906544705646e-02,-7.115797115251173977e-02,-7.347470444046770577e-02,-7.401405603503083408e-02,-7.329177079538169715e-02,-7.238170396115380101e-02,-7.229383619831956931e-02,-7.348924524015129633e-02,-7.576912521273250489e-02,-7.848846745159863969e-02,-8.087539831540532798e-02,-8.228160031965379984e-02,-8.232830621023674855e-02,-8.098299703638571490e-02,-7.856965767652970833e-02,-7.567014634220690927e-02,-7.290571858062398769e-02,-7.068494431403167522e-02,-6.906922340062560117e-02,-6.785702127804255079e-02,-6.683339453331781088e-02,-6.598386085967647419e-02,-6.547903607998654951e-02,-6.543527576601107509e-02,-6.568086999186639741e-02,-6.577964316715899373e-02,-6.533741356702640890e-02,-6.434053838215407495e-02,-6.321630023796073750e-02,-6.253691150897044970e-02,-6.260614686189477918e-02,-6.327650809919048436e-02,-6.414343228884658576e-02,-6.493142022048008222e-02,-6.572394627005266610e-02,-6.684105670971904334e-02,-6.849270379631201833e-02,-7.053506716511918906e-02,-7.255501728026546304e-02,-7.420258210924041142e-02,-7.546631633696351815e-02,-7.665281431541592916e-02,-7.811671379532794668e-02,-8.000196771041614974e-02,-8.219992573190401663e-02,-8.449805240953729701e-02,-8.673824993090706315e-02,-8.885655989147026035e-02,-9.083579341893399661e-02,-9.268320220159888267e-02,-9.447999669555411095e-02,-9.643218612511715582e-02,-9.881419651293769923e-02,-1.017870042096220146e-01,-1.052204005808376752e-01,-1.087028981651372850e-01,-1.117855330832664695e-01,-1.142787593099407195e-01,-1.163438930837837060e-01,-1.183004770151932783e-01,-1.203347839215260368e-01,-1.223738568122612475e-01,-1.242158888335262307e-01,-1.257622519071225353e-01,-1.271082168092720344e-01,-1.283927380029829535e-01,-1.295472552674062916e-01,-1.301894675329862139e-01,-1.297712039567859021e-01,-1.278428684288274997e-01,-1.241923951771184143e-01,-1.187599515476218393e-01,-1.114648821786210359e-01,-1.021660576322389741e-01,-9.083465577315014139e-02,-7.779348519711623555e-02,-6.378489145850084474e-02,-4.976560706969793829e-02,-3.657163748799621694e-02,-2.471308079049528914e-02,-1.442691018017962408e-02,-5.861398323036633336e-03,8.522246544319064029e-04,5.737746900500719296e-03,9.156521597961576886e-03,1.177817802248783997e-02,1.427221106741220942e-02,1.693637109109504338e-02,1.957012351718689230e-02,2.170682438915183532e-02,2.301390926754967245e-02,2.353341781342074834e-02,2.359016711397273272e-02,2.349768925380911130e-02,2.335670299801717933e-02
1.000000000000000000e+00,-7.641466409463831301e-03,-4.493755735257602517e-03,-2.240530739133922596e-03,-1.258555547477252729e-03,-1.613506506809181873e-03,-2.982372444979647808e-03,-4.748523701632550824e-03,-6.290972347659204086e-03,-7.301265348231902007e-03,-7.891178605805019425e-03,-8.395975726161871919e-03,-9.023788332302619050e-03,-9.630840015764396619e-03,-9.791944368275707147e-03,-9.089157350799483698e-03,-7.384568222700162339e-03,-4.900728797557729090e-03,-2.119251619010688575e-03,3.709566231608260860e-04,1.990758958561931677e-03,2.287262463413215763e-03,1.111773669904160501e-03,-1.177436825243701086e-03,-3.634004009938076978e-03,-4.905539043513663586e-03,-3.679363394504802688e-03,7.932123533012612471e-04,8.369325244817045484e-03,1.807130114135939089e-02,2.849749952444141296e-02,3.835744795015271630e-02,4.686180586567911810e-02,5.383727806976112279e-02,5.962089510132062564e-02,6.485761939261158737e-02,7.026689225951476825e-02,7.638366638918034357e-02,8.331051672227278437e-02,9.059189948256593516e-02,9.732415527786449083e-02,1.024976207737693518e-01,1.053993229807658055e-01,1.058267591762393350e-01,1.039848590549453250e-01,1.002035275651805279e-01,9.478464473541485524e-02,8.816981567811930931e-02,8.129204108680300467e-02,7.572486320715664243e-02,7.330603824027276394e-02,7.528052866538549603e-02,8.142353127306334315e-02,8.973897961159055248e-02,9.703917253926798436e-02,1.001727018440755484e-01,9.725355564611330716e-02,8.825141709539360835e-02,7.472597193734456522e-02,5.900132303615492069e-02,4.330010571412737375e-02,2.919715608968625337e-02,1.745063930622041404e-02,8.101076708456174391e-03,7.345102337415337912e-04,-5.168941884491316807e-03,-9.933912042073623702e-03,-1.361075149886562148e-02,-1.617908316845073635e-02,-1.785832439571662100e-02,-1.922381008003635344e-02,-2.098177437266461956e-02,-2.356750619039324826e-02,-2.689441159782220495e-02,-3.044756740833682446e-02,-3.362597425118350747e-02,-3.605400402837377616e-02,-3.764852175705604015e-02,-3.847042934798920039e-02,-3.858137734712243500e-02,-3.808605107599503936e-02,-3.731443118533886438e-02,-3.692807930902620300e-02,-3.780780781904576060e-02,-4.082818535666382642e-02,-4.677893343778895957e-02,-5.655720040620339922e-02,-7.142319179848272137e-02,-9.289189651856095964e-02,-1.219313061122640623e-01,-1.574888476785841762e-01,-1.947744116589045227e-01,-2.240235598983661980e-01,-2.305322174853195460e-01,-1.965479521152654341e-01,-1.051974373128566065e-01,5.388337367437415898e-02,2.782420084457704057e-01,5.476065644330047055e-01,8.229910905379412833e-01,1.052420655819013673e+00,1.183629980272533633e+00,1.180580127716317484e+00,1.037597869073043411e+00,7.844420095049787767e-01,4.786512674467783279e-01,1.871916976083251027e-01,-3.517502387661982505e-02,-1.615704053440885357e-01,-1.966365911067484984e-01,-1.682321274884250040e-01,-1.126846061219141520e-01,-6.082629410153835015e-02,-2.995578462825269905e-02,-2.301992996504606537e-02,-3.305650307766185708e-02,-4.954025410703661453e-02,-6.367521485588241437e-02,-7.107082356669770784e-02,-7.174512067701264983e-02,-6.842217016102516980e-02,-6.441250182055875684e-02,-6.207527404199199988e-02,-6.225370347665619419e-02,-6.451582245843665020e-02,-6.777719801029181979e-02,-7.093514669335117262e-02,-7.331300170577058350e-02,-7.483353646718333974e-02,-7.590411408059236087e-02,-7.707203730757222759e-02,-7.861898324356846046e-02,-8.033692298063217774e-02,-8.165434709686780756e-02,-8.204980461488363408e-02,-8.146110458322704251e-02,-8.037902667111748722e-02,-7.954657090044550682e-02,-7.948745955936525887e-02,-8.020803184743460768e-02,-8.125678465360403058e-02,-8.203381006210275217e-02,-8.207969941208179132e-02,-8.116852849498326639e-02,-7.925451837761154916e-02,-7.643486066283836089e-02,-7.299386943534294514e-02,-6.942595822161931607e-02,-6.631101617359021205e-02,-6.407307655503044486e-02,-6.280640130270399857e-02,-6.232466419067930752e-02,-6.240720928830679332e-02,-6.304672373432691768e-02,-6.448377963016994896e-02,-6.697634920814768411e-02,-7.048195857485321791e-02,-7.452223972874072455e-02,-7.835537143433284057e-02,-8.132612712819338452e-02,-8.312442636331948687e-02,-8.378027289158319901e-02,-8.346208370105033525e-02,-8.230473331697983619e-02,-8.042849076814535814e-02,-7.809138371468249407e-02,-7.576278677832090636e-02,-7.396872465434066457e-02,-7.298406007439590948e-02,-7.262135505113903600e-02,-7.231512278629220747e-02,-7.145600744745932154e-02,-6.972275531269857274e-02,-6.719050087456633624e-02,-6.421106392973253973e-02,-6.123049156883029337e-02,-5.868502304116130636e-02,-5.697624828173504519e-02,-5.644078397065671604e-02,-5.726748138492564894e-02,-5.940438147374741545e-02,-6.254031923551806038e-02,-6.620360277086136114e-02,-6.992401880133504444e-02,-7.334660366147432997e-02,-7.624086298584625832e-02,-7.846316389945562353e-02,-7.996720180397555444e-02,-8.087543065604645143e-02,-8.151965138726811888e-02,-8.234529479303591415e-02,-8.367657373239924257e-02,-8.548327776536598921e-02,-8.734445450407052336e-02,-8.868497734182755055e-02,-8.913855676382770321e-02,-8.876400565855882552e-02,-8.794253258652709460e-02,-8.702951904063745137e-02,-8.601237692683097458e-02,-8.440375286653882536e-02,-8.142068888278218564e-02,-7.631714255754146192e-02,-6.868097761838153070e-02,-5.859179865122930708e-02,-4.664935243561200290e-02,-3.390182085318420996e-02,-2.164892624984027236e-02,-1.109767878848489341e-02,-2.961705994821076885e-03,2.790932947197498695e-03,6.865272061124787911e-03,1.025227829696654519e-02,1.374465428936363746e-02,1.763481796426554296e-02,2.173557437355669655e-02,2.563439524297211544e-02,2.895658199582625339e-02,3.147295298421066284e-02,3.306699378063089612e-02,3.369154189313335046e-02,3.339843085828488045e-02,3.239691453234770646e-02,3.103623694645406272e-02,2.967155124558431070e-02,2.849135059761962255e-02,2.744364817923791375e-02,2.633727829379025817e-02,2.505417460371959712e-02,2.370283704056688062e-02,2.257917083672579539e-02
0.000000000000000000e+00,-5.924524422472704499e-02,-6.087398547041803637e-02,-6.268326886656855335e-02,-6.463340721697970193e-02,-6.650424038352260869e-02,-6.804282370403105795e-02,-6.916525900961616180e-02,-7.000304845957984468e-02,-7.074118369803393536e-02,-7.141370981402651863e-02,-7.187179540919169662e-02,-7.196928395385310262e-02,-7.179127639385057824e-02,-7.169107725860195124e-02,-7.206381979552074768e-02,-7.303313466587353642e-02,-7.432667457063030225e-02,-7.546172702894193840e-02,-7.609302988851535110e-02,-7.623866723555537683e-02,-7.621712613947065340e-02,-7.638717402927515387e-02,-7.693871166229326874e-02,-7.789245213581169613e-02,-7.923415561420242559e-02,-8.098491286903905517e-02,-8.311460346604525318e-02,-8.540621334812935339e-02,-8.744979277250521099e-02,-8.881855842613643748e-02,-8.929346128369998470e-02,-8.894742547067620297e-02,-8.803406586855774818e-02,-8.681186483718776603e-02,-8.548066215315386351e-02,-8.426625436850375406e-02,-8.350744082769702425e-02,-8.357133646284087281e-02,-8.459594490128298505e-02,-8.627198457619263128e-02,-8.790262733668431638e-02,-8.876594854125134659e-02,-8.853638613464404061e-02,-8.744838055378925668e-02,-8.608536270152358783e-02,-8.497940959209124290e-02,-8.434298778262100393e-02,-8.410611632375110391e-02,-8.414763584176966627e-02,-8.446058836339417897e-02,-8.510384614866110808e-02,-8.602840352463309026e-02,-8.698936419749243865e-02,-8.765777733379943870e-02,-8.783602684650521075e-02,-8.756903854456089820e-02,-8.704956144193115586e-02,-8.643165386302709141e-02,-8.575644531313587893e-02,-8.505396949906141035e-02,-8.447067708490384186e-02,-8.422959427907313057e-02,-8.441374881632804361e-02,-8.477802728654200426e-02,-8.480944366140134860e-02,-8.404116422204567505e-02,-8.238391205285987284e-02,-8.021118077087706355e-02,-7.814741272540647044e-02,-7.673736262437459710e-02,-7.621542757770008447e-02,-7.647100620422905837e-02,-7.716954775078309348e-02,-7.792572268308943506e-02,-7.843727528479245426e-02,-7.854815350663449380e-02,-7.827091986447799743e-02,-7.780289390808139971e-02,-7.750506111540086951e-02,-7.775562399373445177e-02,-7.864802489463627866e-02,-7.967434887672857069e-02,-7.966002206165474775e-02,-7.712734448395615339e-02,-7.100009395876227813e-02,-6.134595492287336221e-02,-4.983633227865032905e-02,-3.968936626290335556e-02,-3.489108108789296808e-02,-3.850934897693748804e-02,-5.017891539795849010e-02,-6.349151155982875327e-02,-6.480743038445432869e-02,-3.526170036944136638e-02,4.315125687790328374e-02,1.786241501111127117e-01,3.614024368255124853e-01,5.614344278347159767e-01,7.352552973032806527e-01,8.410247257076854943e-01,8.553160790591238793e-01,7.829767133237367505e-01,6.545731696510761477e-01,5.129348425904418640e-01,3.962299151837515021e-01,3.258812557163379142e-01,3.036287407757400358e-01,3.166619843603487583e-01,3.464273502767766244e-01,3.765384265045737533e-01,3.971381578433511028e-01,4.053948628415025568e-01,4.034096766135589207e-01,3.953170382699406904e-01,3.849726812332873727e-01,3.748020370654887023e-01,3.656358111708556957e-01,3.570345888784456356e-01,3.477100297200402812e-01,3.359239497811339903e-01,3.199133788354818764e-01,2.983561233014498382e-01,2.707470576810214746e-01,2.374663090531009824e-01,1.994082675895457180e-01,1.572936662089060023e-01,1.110556585545182523e-01,5.976878525873789705e-02,2.355366654619613087e-03,-6.115096298767503519e-02,-1.284045036433970055e-01,-1.943238980881664413e-01,-2.518861138639486574e-01,-2.940434394386892691e-01,-3.160913466404577377e-01,-3.174810296099904172e-01,-3.022110729772208293e-01,-2.775441911195302147e-01,-2.515747429904109933e-01,-2.306848625848715861e-01,-2.178973616211601627e-01,-2.126254639831746673e-01,-2.116568844828313478e-01,-2.107467437307196656e-01,-2.061135948442768262e-01,-1.953907893985145638e-01,-1.779747276269907919e-01,-1.549763385391616233e-01,-1.289714850214568054e-01,-1.035494120892067743e-01,-8.254467417312812139e-02,-6.898989391745123656e-02,-6.413696279966359104e-02,-6.704789297756234834e-02,-7.503453792123240818e-02,-8.474228864808089345e-02,-9.329784303109760202e-02,-9.897088801630575527e-02,-1.011840263748586544e-01,-1.001154552142400900e-01,-9.628367986354913199e-02,-9.035104386542458510e-02,-8.311650671674399027e-02,-7.550992025980270139e-02,-6.845167669509158448e-02,-6.261533615855890966e-02,-5.824132259803671552e-02,-5.510736205847467650e-02,-5.264778154177146563e-02,-5.015471029286271837e-02,-4.700646536241078616e-02,-4.287461074189369281e-02,-3.783230810839208202e-02,-3.229146907187911003e-02,-2.678222067459377562e-02,-2.169565424664792602e-02,-1.714605900204121958e-02,-1.303705557351335018e-02,-9.274473337856933494e-03,-5.947320108084458781e-03,-3.299200519189295685e-03,-1.466310474517414043e-03,-1.596737827913023873e-04,1.450616888015299156e-03,4.504999529803961102e-03,9.957495188778812262e-03,1.807424839376086528e-02,2.821003340103902385e-02,3.897728153089340813e-02,4.867989153172712358e-02,5.576077521204941823e-02,5.909371093736279223e-02,5.811921471884735901e-02,5.290239407975908664e-02,4.413556133419909572e-02,3.302829194035523941e-02,2.104389001727895517e-02,9.558959833536006395e-03,-3.841196988674867624e-04,-8.121020199354934965e-03,-1.327021595355427561e-02,-1.567229399532674497e-02,-1.545997233234223597e-02,-1.317366144935953019e-02,-9.739620001851665571e-03,-6.212453571615068372e-03,-3.379593880995474670e-03,-1.461769179674221380e-03,-9.819447713559675459e-05,1.388129148185678454e-03,3.631591140592554945e-03,6.983065889391826785e-03,1.146342658516709412e-02,1.683806340670938526e-02,2.271191098747396900e-02,2.861929922999017009e-02,3.413524967492338053e-02,3.900589971284166430e-02,4.323631009206845011e-02,4.706154513561074809e-02,5.079282960322686197e-02,5.463264968696527474e-02,5.859483577615715033e-02,6.258413727220658862e-02,6.654327243532004443e-02,7.050850111595292902e-02,7.450283681088409882e-02,7.836037184322294791e-02,8.166321832018731686e-02,8.389623332995133076e-02
0.000000000000000000e+00,-6.672453336396746981e-02,-6.777830212119688447e-02,-6.879049458073376033e-02,-7.025917264598567635e-02,-7.249958416165933062e-02,-7.547045630532120408e-02,-7.872858367160716353e-02,-8.156357320869976613e-02,-8.328888229882139282e-02,-8.355922308653133956e-02,-8.254190748719592019e-02,-8.084675817359865402e-02,-7.926492532352899523e-02,-7.846704581158980840e-02,-7.879946486968325559e-02,-8.023187311108223585e-02,-8.243042557793675562e-02,-8.490075630772972448e-02,-8.715705340985520355e-02,-8.888138742624110411e-02,-9.001708279002459956e-02,-9.073609256767323217e-02,-9.127832930435331171e-02,-9.174760909793060193e-02,-9.199868914552321308e-02,-9.172097260918833650e-02,-9.070619172452031032e-02,-8.913390402717046024e-02,-8.764146229968131085e-02,-8.705687606581898053e-02,-8.792043519775127880e-02,-9.011627694953923406e-02,-9.288573205183454917e-02,-9.521404772932316740e-02,-9.631796738793786672e-02,-9.593688231229646757e-02,-9.431679323562634776e-02,-9.198111543211366647e-02,-8.946994545145257882e-02,-8.718847144493910295e-02,-8.538881996279501507e-02,-8.420364179490869017e-02,-8.364304773796023273e-02,-8.356085172678302808e-02,-8.367326405751097929e-02,-8.366871025110543536e-02,-8.333475173703674965e-02,-8.259647284932104816e-02,-8.145894048205819249e-02,-7.995533653752190384e-02,-7.818455285482332762e-02,-7.639282065996896853e-02,-7.496421960436823462e-02,-7.425066294074590678e-02,-7.434388755124672621e-02,-7.499246480331184239e-02,-7.577187956965580895e-02,-7.639922355879101568e-02,-7.694726183835531863e-02,-7.777971665592132988e-02,-7.924306424923369119e-02,-8.134098403112376141e-02,-8.364140963214100610e-02,-8.549622858512358203e-02,-8.640785196308581328e-02,-8.625987714674454576e-02,-8.526012888164354042e-02,-8.370415636857694852e-02,-8.179920241677610115e-02,-7.968084065850147835e-02,-7.754516006343843693e-02,-7.571623942324674783e-02,-7.454388738917723523e-02,-7.419475051217594430e-02,-7.451456207472791082e-02,-7.509904930837406345e-02,-7.554330865578258447e-02,-7.569304249479863467e-02,-7.572399594262681222e-02,-7.600654541255044694e-02,-7.684026997513347668e-02,-7.817507603809624450e-02,-7.940197212805161220e-02,-7.930322864723102216e-02,-7.632323195244847258e-02,-6.931275260353302048e-02,-5.864024449935263672e-02,-4.711077980573888380e-02,-3.981676585938357521e-02,-4.223748198608685833e-02,-5.671900138580490691e-02,-7.860024037672884434e-02,-9.409656115084097383e-02,-8.201094713512575851e-02,-2.014203056415992538e-02,1.048869505885435677e-01,2.880259115053249719e-01,5.014952401670210724e-01,6.999436780143717396e-01,8.352421414164609148e-01,8.753526628081949035e-01,8.179174085260705329e-01,6.909648650267419256e-01,5.402092766030938131e-01,4.100340908399027762e-01,3.279904984072322116e-01,2.992032093193207065e-01,3.107906257507239700e-01,3.417049307617465170e-01,3.723946290192111097e-01,3.906506960417158170e-01,3.928685106341655575e-01,3.820262690544254935e-01,3.643222372179493185e-01,3.459869809144879294e-01,3.310503273521426815e-01,3.203272754592466076e-01,3.116299162750317819e-01,3.009830453997724420e-01,2.843191755382107333e-01,2.589156481631595952e-01,2.239440500655896227e-01,1.799776992656765273e-01,1.279160753700263053e-01,6.815458499046496421e-02,6.807396821065770341e-04,-7.383961731558243147e-02,-1.526353008309684622e-01,-2.300602437868162764e-01,-2.982366179594497790e-01,-3.491473978231179331e-01,-3.773840223368886693e-01,-3.822687043807537211e-01,-3.682637877156934025e-01,-3.433946666061487574e-01,-3.163725088131381091e-01,-2.936587170524401214e-01,-2.776321264297895164e-01,-2.664631685208039835e-01,-2.555973343884138660e-01,-2.401700836195725386e-01,-2.173674187847419170e-01,-1.877941336523547555e-01,-1.553256140838344401e-01,-1.255704354517304666e-01,-1.036822200282149359e-01,-9.251494529628725982e-02,-9.185638272373095048e-02,-9.885811098959328136e-02,-1.092257957140652380e-01,-1.185745926631922298e-01,-1.235461454873030412e-01,-1.225190949168512150e-01,-1.158291819150599061e-01,-1.054298336762175131e-01,-9.404536614350750279e-02,-8.410799203106494870e-02,-7.693853342529649586e-02,-7.253726387718707758e-02,-7.000562970602794421e-02,-6.825416111842078082e-02,-6.653839922605565838e-02,-6.458054527464961170e-02,-6.238495990679021608e-02,-6.003923868943780023e-02,-5.767968798336895603e-02,-5.554759496218736325e-02,-5.394220459560247066e-02,-5.300672305587693367e-02,-5.252027216523535297e-02,-5.193582864477863659e-02,-5.069027972345359345e-02,-4.853306647409279251e-02,-4.559112972962774818e-02,-4.215226006794521585e-02,-3.842566005388594469e-02,-3.453895854705076041e-02,-3.075281698939419384e-02,-2.760173633392789053e-02,-2.570005728093805938e-02,-2.528218071859506325e-02,-2.584905536029910578e-02,-2.625649125913760012e-02,-2.523219822653720301e-02,-2.197427384107592321e-02,-1.645593041954188790e-02,-9.321883626408492343e-03,-1.541424421559240863e-03,5.940929437627507324e-03,1.243149313005058321e-02,1.760406864141546637e-02,2.155468740170538369e-02,2.478098805072062247e-02,2.802995687531843749e-02,3.201738404599466237e-02,3.714616875092906223e-02,4.340458164745251285e-02,5.051357509939109064e-02,5.818474418675711329e-02,6.624924993582803623e-02,7.454395674426701757e-02,8.268584021429598030e-02,8.999499230400978544e-02,9.571143576731780400e-02,9.938684081543404381e-02,1.011561096221104128e-01,1.016771923500290470e-01,1.018064662440060497e-01,1.022853408899088434e-01,1.036399677248923540e-01,1.062276379915982755e-01,1.102117666220126524e-01,1.153865380671288826e-01,1.210307400675132566e-01,1.260409004931023758e-01,1.293799618570315724e-01,1.305786707568654392e-01,1.299299585723465988e-01,1.282238166517462030e-01,1.262080932828009983e-01,1.241521756824068290e-01,1.217948358024037309e-01,1.186602743426138501e-01,1.144602181998878865e-01,1.092683921705561029e-01,1.033719190481565131e-01,9.698728423184345415e-02,9.013512089138206451e-02,8.279650306476434019e-02,7.517739289462653518e-02
1.000000000000000000e+00,-1.708784685957494276e-02,-1.565793766954952371e-02,-1.470594077905150801e-02,-1.464943728002067284e-02,-1.568722401477349107e-02,-1.771221563861808540e-02,-2.041964231858729023e-02,-2.344216059703786020e-02,-2.637775422726830465e-02,-2.875868255851619579e-02,-3.011543107398976030e-02,-3.018558199171206269e-02,-2.911427804210631187e-02,-2.743303006410671013e-02,-2.578004782682212156e-02,-2.455640511842832954e-02,-2.375884900343178813e-02,-2.306597539990014323e-02,-2.205334631658643907e-02,-2.034978699308825217e-02,-1.765667514560448348e-02,-1.371267146962378870e-02,-8.335132701633132107e-03,-1.566102513840078765e-03,6.195179418511576400e-03,1.423528073547815007e-02,2.178710607795816823e-02,2.835474851592456949e-02,3.387327799341579432e-02,3.861386838384367470e-02,4.296077299869935362e-02,4.725380170086696668e-02,5.175896814845111493e-02,5.666643582552908370e-02,6.199877802820594197e-02,6.745303251447168358e-02,7.234138630815208082e-02,7.577698901045606950e-02,7.706462955211335064e-02,7.605957588862422014e-02,7.323936161171853976e-02,6.943403349573133709e-02,6.542232158682434462e-02,6.169922098623587675e-02,5.856437941725546603e-02,5.640002884763061636e-02,5.583922880587664783e-02,5.760122201659852170e-02,6.201455858329661674e-02,6.848279914330136775e-02,7.524007505914025173e-02,7.964285000493381839e-02,7.897590714751687169e-02,7.144691500057280542e-02,5.690639809409404892e-02,3.697165222060431328e-02,1.454663221739362598e-02,-7.022839710800415393e-03,-2.485989363681375200e-02,-3.728315907156032338e-02,-4.414967256487425246e-02,-4.669099240916357862e-02,-4.688920398925642413e-02,-4.665984689644997463e-02,-4.721888735611994709e-02,-4.888990184863815230e-02,-5.132536853802373289e-02,-5.389347844661737663e-02,-5.598333953925694467e-02,-5.716001405029941945e-02,-5.725625399116808512e-02,-5.646816424366676856e-02,-5.537636585842940773e-02,-5.474930141636321496e-02,-5.514162658110999954e-02,-5.655629603476747952e-02,-5.849835434092030134e-02,-6.047701706382207359e-02,-6.262164335566863804e-02,-6.592387255907961041e-02,-7.186350522483493652e-02,-8.164167082184606294e-02,-9.556024050131092795e-02,-1.129904333526238897e-01,-1.329325808975329315e-01,-1.547189338867601682e-01,-1.782846106352481697e-01,-2.037144259354952136e-01,-2.302593903145593035e-01,-2.553441988200784163e-01,-2.739948400165836406e-01,-2.787168948145289926e-01,-2.596359356927474549e-01,-2.050489507386363819e-01,-1.031576761048945551e-01,5.415191554604775054e-02,2.656388431248896675e-01,5.151064208325318861e-01,7.692265388137726756e-01,9.818153481126533633e-01,1.105131280859579013e+00,1.105174378796544676e+00,9.751299307316380061e-01,7.407328695833670373e-01,4.540724903764822296e-01,1.773368586920414103e-01,-3.711703230402799147e-02,-1.619960252074286455e-01,-1.995785437393518547e-01,-1.748744860442779936e-01,-1.220501064902937832e-01,-7.092166662308868608e-02,-3.881052822666236635e-02,-2.940603447340632906e-02,-3.685416357106782725e-02,-5.169131814694824523e-02,-6.568308983601968409e-02,-7.421246033008434273e-02,-7.640447422757586093e-02,-7.395052359463137603e-02,-6.959167815971821491e-02,-6.584859599691064713e-02,-6.423845829334058621e-02,-6.503380076673975774e-02,-6.751329275699691213e-02,-7.052443935546061360e-02,-7.305443163285268993e-02,-7.452794977370243157e-02,-7.476626421512840015e-02,-7.378688908567714033e-02,-7.168230859917543163e-02,-6.866590836422400979e-02,-6.518244104836194708e-02,-6.191170605216136241e-02,-5.958332929330693861e-02,-5.868947948593679353e-02,-5.928737377728929281e-02,-6.102154198286203340e-02,-6.332167028545374055e-02,-6.561158999109335810e-02,-6.740081341878370602e-02,-6.827110782881011530e-02,-6.787757951681057389e-02,-6.605441713006490745e-02,-6.297716293377512986e-02,-5.922516213659130557e-02,-5.562662624914955362e-02,-5.293267523057020724e-02,-5.151546245388519824e-02,-5.128139616897153807e-02,-5.182356894502459371e-02,-5.265886287501610197e-02,-5.337986696207007442e-02,-5.369748982828174977e-02,-5.347069233860279186e-02,-5.277222058849442149e-02,-5.190356953378475607e-02,-5.124984576253949209e-02,-5.101899478021534873e-02,-5.107368020049773971e-02,-5.103256198101835395e-02,-5.058870519611994437e-02,-4.978276132493698186e-02,-4.899122821683928042e-02,-4.863735512350916140e-02,-4.887311520869521558e-02,-4.948498106532370905e-02,-5.005542336039421614e-02,-5.020602675023143335e-02,-4.974685312413015814e-02,-4.870165976117703938e-02,-4.727959537756278724e-02,-4.583449098157228035e-02,-4.477775106008657219e-02,-4.441539775680435759e-02,-4.477179461201639260e-02,-4.553165213921736565e-02,-4.618839705383059879e-02,-4.634776005512188102e-02,-4.599576861750372808e-02,-4.551975957737908890e-02,-4.543312155146194548e-02,-4.599910514943355427e-02,-4.704815475222988430e-02,-4.811942684703884171e-02,-4.877889646570644083e-02,-4.883785772887576371e-02,-4.832819509911702449e-02,-4.734262033760640309e-02,-4.596285420881616318e-02,-4.436407377454219120e-02,-4.295389859924939047e-02,-4.232800730494913621e-02,-4.298047885574670518e-02,-4.494433546595735102e-02,-4.763724702369147995e-02,-5.005158178173398781e-02,-5.116526335748204646e-02,-5.029067660648815774e-02,-4.716447475670560580e-02,-4.182298651726649302e-02,-3.447547778063966839e-02,-2.552711411766803509e-02,-1.568188234511591964e-02,-5.909560378210552620e-03,2.837519681815899465e-03,1.001473369251752385e-02,1.569379022242422400e-02,2.042283184421724018e-02,2.484890030061315952e-02,2.938614088288705670e-02,3.412322309860884445e-02,3.892056883818600932e-02,4.351485427905465303e-02,4.754014264728635697e-02,5.053959654978643079e-02,5.207659883650538057e-02,5.194058299446872168e-02,5.031391355325487424e-02,4.774978467918696012e-02,4.493871199740376299e-02,4.241785656592379078e-02,4.043821712417958875e-02,3.907055285390854948e-02,3.840900705887893840e-02,3.863143916473738698e-02,3.981278046993159958e-02,4.165307388692191665e-02,4.341838708166940314e-02,4.424352819713802537e-02
1.000000000000000000e+00,-1.588597207116471122e-02,-1.278709729144781627e-02,-1.096087001647010582e-02,-1.110211451005503440e-02,-1.338307010324573006e-02,-1.729709276695267500e-02,-2.172053039238912298e-02,-2.527556496338220077e-02,-2.686569545104804807e-02,-2.608976834220725141e-02,-2.329823097709536259e-02,-1.931059873201424609e-02,-1.503265541146687513e-02,-1.119917585869247174e-02,-8.272227831159570041e-03,-6.375668933931964884e-03,-5.198542698783419590e-03,-3.967286812762989279e-03,-1.646554826489202540e-03,2.618724912715877495e-03,9.034478460312864515e-03,1.697001939339597490e-02,2.521479414416923082e-02,3.254431249976036389e-02,3.824289547712361736e-02,4.229055161453518924e-02,4.520466798982568368e-02,4.775299465052890158e-02,5.072491933130210406e-02,5.476923353575666176e-02,6.022030061299284143e-02,6.691769093179898709e-02,7.414503404449834800e-02,8.081678838630215744e-02,8.589484329243818328e-02,8.882464616895251186e-02,8.971246334563333369e-02,8.911854044240595518e-02,8.761995450118996442e-02,8.547092283262409940e-02,8.260123648636123750e-02,7.891783473151905981e-02,7.465339789026191608e-02,7.051131244608858928e-02,6.751794111971247403e-02,6.663221494433820002e-02,6.823629840963853221e-02,7.171001070827935642e-02,7.535355331861270933e-02,7.683467577067172594e-02,7.405687559944748588e-02,6.604881566275058735e-02,5.341045301454820649e-02,3.808991587767521225e-02,2.263134796859360420e-02,9.280825281939471261e-03,-6.526120858670401547e-04,-6.962123015074551599e-03,-1.026180443102341251e-02,-1.149333864950957858e-02,-1.153323735839544353e-02,-1.109496889533747102e-02,-1.085484195508422921e-02,-1.153469001502249909e-02,-1.374650390773392294e-02,-1.767982818663671810e-02,-2.290939299205315902e-02,-2.852459841193467210e-02,-3.352218797629556712e-02,-3.720621811298441967e-02,-3.936273203591483111e-02,-4.017196097735511312e-02,-4.000425480501227510e-02,-3.926476470126609442e-02,-3.832492807350054015e-02,-3.746799946030635042e-02,-3.679844843280911937e-02,-3.617106414655740787e-02,-3.524877874026226959e-02,-3.372593311112223602e-02,-3.161048227578582698e-02,-2.938536368854651262e-02,-2.796425564817919471e-02,-2.854612856129481319e-02,-3.255423339452814119e-02,-4.170162027684955197e-02,-5.796358660528302259e-02,-8.309624166823423308e-02,-1.174800844868521682e-01,-1.584521554245113262e-01,-1.987268416729713050e-01,-2.257537129212718596e-01,-2.227669381791207437e-01,-1.718896118071001622e-01,-5.913621272243362731e-02,1.194597017013870471e-01,3.522070449202623910e-01,6.091268852094885444e-01,8.450090839887071104e-01,1.009325494753719354e+00,1.061056445136387971e+00,9.832702990618029659e-01,7.910655249949887224e-01,5.284960011364178145e-01,2.548016185607230311e-01,2.533006639458090445e-02,-1.249266291170951920e-01,-1.887807069885895361e-01,-1.834863409849517013e-01,-1.396796063507951546e-01,-8.836360544485025170e-02,-5.118983928656967164e-02,-3.666598664034617649e-02,-4.194349726203619455e-02,-5.788425563053803402e-02,-7.461902664104697047e-02,-8.547356234184609602e-02,-8.834647107468709959e-02,-8.483225004870444119e-02,-7.819081103641180308e-02,-7.142259331144457102e-02,-6.624381293627415457e-02,-6.303556548790387182e-02,-6.133982598217357224e-02,-6.042368050090623360e-02,-5.967870965859518179e-02,-5.884497580921376619e-02,-5.808712202678997794e-02,-5.789711988618534422e-02,-5.881220371390932788e-02,-6.104885572777904446e-02,-6.426438477377766079e-02,-6.764088964176796781e-02,-7.029938016334616457e-02,-7.179805723935010764e-02,-7.235906382601542397e-02,-7.264401211210481935e-02,-7.324816645418331940e-02,-7.430190480174303502e-02,-7.546055008675831011e-02,-7.623708416591828962e-02,-7.637889017203215725e-02,-7.601182432667978606e-02,-7.551070103644438869e-02,-7.526286896378746316e-02,-7.550575043775405171e-02,-7.628954117193013917e-02,-7.749997236121940192e-02,-7.886540209784240196e-02,-7.994501910041101889e-02,-8.016938188764406725e-02,-7.900306987154620542e-02,-7.620221288948943184e-02,-7.202667709486559877e-02,-6.725872357765476373e-02,-6.299980287193369943e-02,-6.035022170263091429e-02,-6.010368910305895901e-02,-6.252160239819594401e-02,-6.719994608567445016e-02,-7.306667192484039841e-02,-7.858919844057050963e-02,-8.222584245925969315e-02,-8.299964064336637359e-02,-8.091451327722903875e-02,-7.693904971495377221e-02,-7.252218095714281498e-02,-6.892507836908090546e-02,-6.677812944211790336e-02,-6.607642990618400880e-02,-6.648377432601813852e-02,-6.762767310350990824e-02,-6.917533862978067494e-02,-7.074465716797827264e-02,-7.187219578537588915e-02,-7.218991766806644172e-02,-7.172186224452553605e-02,-7.103001158160264505e-02,-7.101175696601326470e-02,-7.243630566026947049e-02,-7.553940975270641289e-02,-7.995721673427218235e-02,-8.501287806173442319e-02,-9.011444547839825292e-02,-9.498782338198090425e-02,-9.965121309582719578e-02,-1.042402159049770072e-01,-1.088312333670236609e-01,-1.133101055203710877e-01,-1.172749882578391772e-01,-1.200318455503378151e-01,-1.208012641190930464e-01,-1.191398815881364454e-01,-1.153488326731702956e-01,-1.105439331100434019e-01,-1.062410004170011579e-01,-1.036418765347089654e-01,-1.030366978136129652e-01,-1.036907902800056347e-01,-1.042781233546726527e-01,-1.035645831257104021e-01,-1.009009102046717066e-01,-9.627092758155283980e-02,-8.999846402462856332e-02,-8.244149936518678501e-02,-7.391270698993721022e-02,-6.477368667360111631e-02,-5.546147855028972506e-02,-4.631250550166438051e-02,-3.732304367260497885e-02,-2.812094605535868722e-02,-1.826865452240942350e-02,-7.718874458330176463e-03,2.918135091210589949e-03,1.251701423821908153e-02,1.991491490901944536e-02,2.442120886307054886e-02,2.606403687476734760e-02,2.549232509995859319e-02,2.368028822550311344e-02,2.163939143186336539e-02,2.022396549112662201e-02,1.998583854892651765e-02,2.103392245586991477e-02,2.296009637279160590e-02,2.495547547969246410e-02,2.615848655128773931e-02,2.609792390511140453e-02,2.497772287089268517e-02,2.361549606738317861e-02
0.000000000000000000e+00,-2.586218653874174447e-02,-2.770805928742927846e-02,-3.013075372647791919e-02,-3.282582633760163654e-02,-3.532101363802966909e-02,-3.725109300236571774e-02,-3.857733204849449204e-02,-3.955374967798212793e-02,-4.046717271590507398e-02,-4.139138669829423717e-02,-4.217937074402242775e-02,-4.268216477263415271e-02,-4.296267696258579405e-02,-4.328304443922647432e-02,-4.387088134635599296e-02,-4.469235601681437187e-02,-4.546557224638004407e-02,-4.592841564304600555e-02,-4.613189227421737176e-02,-4.648989241528755922e-02,-4.752418131312645400e-02,-4.950936239487661872e-02,-5.229698362713944976e-02,-5.542370908848950201e-02,-5.836968803787881410e-02,-6.075053042935630448e-02,-6.234703367496657184e-02,-6.305750113951183455e-02,-6.291228647377976324e-02,-6.216916938330819403e-02,-6.135172740969273980e-02,-6.109180971704581548e-02,-6.181962268133906618e-02,-6.352809978622989129e-02,-6.582061749696151154e-02,-6.822720427408753008e-02,-7.054305437601859907e-02,-7.292055388563081775e-02,-7.565603912181781410e-02,-7.885792452835417576e-02,-8.224786080611870553e-02,-8.520532551633110130e-02,-8.697622993179031370e-02,-8.689839183711124682e-02,-8.457496949052471791e-02,-8.001662009671993425e-02,-7.374656130982000513e-02,-6.676369926660552512e-02,-6.025151354829669931e-02,-5.508356541012431745e-02,-5.139416203369081421e-02,-4.853735381074567728e-02,-4.553764706351898228e-02,-4.177689311130475952e-02,-3.746017105602703068e-02,-3.354485564999486191e-02,-3.119211597274278852e-02,-3.110870404656005880e-02,-3.317396868742797378e-02,-3.652309768353663444e-02,-3.997519202119807075e-02,-4.253241041750318446e-02,-4.370679314964514423e-02,-4.359900711986643834e-02,-4.280507519039836867e-02,-4.224390535633920640e-02,-4.291935022182109122e-02,-4.560193412430196130e-02,-5.050497171390164880e-02,-5.712956617728642827e-02,-6.441074645836247781e-02,-7.111563384761708517e-02,-7.627998076317225873e-02,-7.945746771137006392e-02,-8.070047974253294343e-02,-8.037814573877233304e-02,-7.901434114228965411e-02,-7.722937635559744274e-02,-7.570791056147731235e-02,-7.507661287151831675e-02,-7.568778934365023858e-02,-7.742269387121923641e-02,-7.963136671110235265e-02,-8.124488561758885785e-02,-8.103715028627984929e-02,-7.803134728509814044e-02,-7.206718093629302380e-02,-6.441805124588381726e-02,-5.805097568481350917e-02,-5.690639738515430868e-02,-6.379731471661298503e-02,-7.730647530753023688e-02,-8.908476247716499985e-02,-8.357942190707338959e-02,-4.180310310318032657e-02,5.093092581752992759e-02,1.958497777694138131e-01,3.747268376972168191e-01,5.516814028304121154e-01,6.843408589724629953e-01,7.405462914130082064e-01,7.123424545331491498e-01,6.193675121074541101e-01,4.996429372087177190e-01,3.931526002074985926e-01,3.270772304651067275e-01,3.091786377263004426e-01,3.303025851694356141e-01,3.724524583811792966e-01,4.175547383991545236e-01,4.533911554578973213e-01,4.755093317498497174e-01,4.858520977684958608e-01,4.897698408148541405e-01,4.930271145005962752e-01,4.997754339832653492e-01,5.117301687645844366e-01,5.282916399256877282e-01,5.471706696343600074e-01,5.651386746045894416e-01,5.786929015171863311e-01,5.845848477994387560e-01,5.802171583384209130e-01,5.638715428845046951e-01,5.347039011480765325e-01,4.925631854542599775e-01,4.379136008875279540e-01,3.722007124564146729e-01,2.986586702990640663e-01,2.229537775139211753e-01,1.527682745788102314e-01,9.591923917000531874e-02,5.765855486770367355e-02,3.856467305909531268e-02,3.422435652784484861e-02,3.686208773027543212e-02,3.803775843298891346e-02,3.119906933807852639e-02,1.324759747169945538e-02,-1.513353880134998657e-02,-5.024506640334389790e-02,-8.690170836068426830e-02,-1.202469164926255329e-01,-1.472210700089436053e-01,-1.671074658347715403e-01,-1.809909857191349114e-01,-1.905513519776033393e-01,-1.969726732185392570e-01,-2.006055020267629718e-01,-2.014529470659371102e-01,-1.999663075222909703e-01,-1.974551601980664151e-01,-1.957654556786894429e-01,-1.964580550822555560e-01,-2.000614437271444057e-01,-2.058501958306994672e-01,-2.121903232400834949e-01,-2.171565912382273922e-01,-2.190864068403218234e-01,-2.169275880808261836e-01,-2.104302767549714182e-01,-2.002488161930340294e-01,-1.878902809029991683e-01,-1.753756890520310197e-01,-1.646191738108551128e-01,-1.567844835392263048e-01,-1.519788396569184963e-01,-1.494449354878911174e-01,-1.480708980943665209e-01,-1.468674969314160417e-01,-1.451992706315355097e-01,-1.428179786485027358e-01,-1.398468639867883612e-01,-1.367489333284638564e-01,-1.341882338651692042e-01,-1.327390271437527969e-01,-1.325615081615017510e-01,-1.332520044518312186e-01,-1.339816240160452976e-01,-1.338422890664619780e-01,-1.321952096044341218e-01,-1.288526162280298759e-01,-1.240673094798149245e-01,-1.184269379706533037e-01,-1.127432909575328129e-01,-1.079153089641614049e-01,-1.046884520388183942e-01,-1.033388729591972616e-01,-1.034702911074935894e-01,-1.041205095948731785e-01,-1.041785394988206659e-01,-1.028695532386764422e-01,-9.998823610970049292e-02,-9.573952973881001693e-02,-9.035641965643201323e-02,-8.384266038314357183e-02,-7.605861698315367903e-02,-6.704424726561915293e-02,-5.725815795291125387e-02,-4.748930546664285879e-02,-3.847636053285206220e-02,-3.050880610258330239e-02,-2.330665410191599604e-02,-1.627415007906882899e-02,-8.944343207835894760e-03,-1.288858167666979190e-03,6.315379334502844132e-03,1.338759643981639325e-02,1.964129216929226540e-02,2.506514446334507512e-02,2.979878712840078672e-02,3.397327804947875007e-02,3.764673132053630161e-02,4.082169610116215958e-02,4.345446389457774394e-02,4.541802117473153766e-02,4.648063056234805895e-02,4.639070102721452871e-02,4.506404998576704624e-02,4.273370486360626025e-02,3.990313613668964449e-02,3.709918838898602217e-02,3.461270269080082840e-02,3.243849158596739252e-02,3.043601588027786825e-02,2.851463895100189716e-02,2.664036782605509746e-02,2.468212098548330444e-02,2.232380462589577189e-02,1.922484629786816099e-02
0.000000000000000000e+00,-6.435455249262693467e-02,-6.779212089332260771e-02,-7.074396826067055888e-02,-7.271954536354441334e-02,-7.384894587355030071e-02,-7.461017646117681923e-02,-7.547360616287976387e-02,-7.672448353778117680e-02,-7.848917148950403100e-02,-8.080904971291388850e-02,-8.363302206057181276e-02,-8.676104232736700506e-02,-8.986855430671264466e-02,-9.266118193561539984e-02,-9.504618272996062656e-02,-9.715212963331075480e-02,-9.914773930051851147e-02,-1.009971095637454269e-01,-1.023708337930600010e-01,-1.028183169953194309e-01,-1.020810722691673778e-01,-1.002958645143819522e-01,-9.792857435318830239e-02,-9.551602655906002437e-02,-9.345614866587323433e-02,-9.201672752418149637e-02,-9.149179276118528381e-02,-9.226612047495275082e-02,-9.463382732752240178e-02,-9.847961389292485268e-02,-1.031140985128243814e-01,-1.074791642446994155e-01,-1.106581717202228254e-01,-1.123622033774911572e-01,-1.130392908944867630e-01,-1.135157216780819933e-01,-1.144291270936574206e-01,-1.158610405305973562e-01,-1.174024953658282938e-01,-1.185416587181562925e-01,-1.190306589276188265e-01,-1.189551107048802819e-01,-1.185217630533990651e-01,-1.178188447892922486e-01,-1.167751093932582751e-01,-1.153112718101426543e-01,-1.134963651717761368e-01,-1.115562234175281331e-01,-1.097563795207210230e-01,-1.082981898436857632e-01,-1.073155968266986948e-01,-1.069139651496947285e-01,-1.071256288422916259e-01,-1.077640656244377854e-01,-1.083357064747332704e-01,-1.081957148919519968e-01,-1.069240235642707343e-01,-1.046414515855260546e-01,-1.019781764211911551e-01,-9.970257215633920866e-02,-9.832670152945771624e-02,-9.799446723357249645e-02,-9.864512664789688856e-02,-1.001861795018231388e-01,-1.024810151000997704e-01,-1.052338906890943754e-01,-1.079981233114735428e-01,-1.103936962033470609e-01,-1.123670726847623424e-01,-1.142282653736324677e-01,-1.163616838122715491e-01,-1.187970287087457139e-01,-1.209973326847628428e-01,-1.220935558236725532e-01,-1.214323434723229844e-01,-1.190204506699879677e-01,-1.155234236318580798e-01,-1.118419150548578406e-01,-1.086061876350746802e-01,-1.059324238754510844e-01,-1.035120496328041928e-01,-1.008236390064439769e-01,-9.721461221347507675e-02,-9.182747662549345380e-02,-8.362388742332592384e-02,-7.180275326257697099e-02,-5.662614867720869999e-02,-4.024063920927769406e-02,-2.680421810543629976e-02,-2.131144468718238622e-02,-2.699139818225144288e-02,-4.191966803818300558e-02,-5.630775578593005121e-02,-5.243627700668729991e-02,-8.857960234405000410e-03,9.110302837906633644e-02,2.491746230813654539e-01,4.453460281187105463e-01,6.397506477008089165e-01,7.850576813739904569e-01,8.450421766759232955e-01,8.100533255981208214e-01,7.006927845546059297e-01,5.576740399958743932e-01,4.239649522997133158e-01,3.290003172353563321e-01,2.819470798165452652e-01,2.747448380092314402e-01,2.906645947947261166e-01,3.129766706379279451e-01,3.303065891045586788e-01,3.380750306469350042e-01,3.372191716514498228e-01,3.317444022260069847e-01,3.261945615957065336e-01,3.236517400190346283e-01,3.246693331388740278e-01,3.273844511752913022e-01,3.286903766767130808e-01,3.258504814853003251e-01,3.176624125782280261e-01,3.045278972175000098e-01,2.874558954492001384e-01,2.666803070751896931e-01,2.407773448121380555e-01,2.068527004868341290e-01,1.618148446685887532e-01,1.042594909782052076e-01,3.617842530992868705e-02,-3.637250268921862761e-02,-1.042538606216287106e-01,-1.578503787719113538e-01,-1.904630742073404048e-01,-2.010331264394296380e-01,-1.948026373134514877e-01,-1.813876734900351229e-01,-1.710118424289640282e-01,-1.705812413209257805e-01,-1.813283323591820262e-01,-1.989241634459760488e-01,-2.157700897324276446e-01,-2.242851240286945769e-01,-2.197905286024268989e-01,-2.020087031943577915e-01,-1.748894816792395668e-01,-1.450861845112771387e-01,-1.197354263605334701e-01,-1.042619163904551088e-01,-1.008466303775296946e-01,-1.080168225998634907e-01,-1.214821709105695507e-01,-1.358642800923405836e-01,-1.465742557999818729e-01,-1.510612328506005797e-01,-1.490328171039961014e-01,-1.418059610394569181e-01,-1.313358648439011123e-01,-1.194643914852146632e-01,-1.076010906075428042e-01,-9.670585933883454888e-02,-8.733910172077678780e-02,-7.967872632443789849e-02,-7.356346142712014147e-02,-6.862947531858898387e-02,-6.448900562180311102e-02,-6.082512574777171332e-02,-5.734714256283539313e-02,-5.369541731543640839e-02,-4.945040445847761340e-02,-4.431190572909044639e-02,-3.834328733479701323e-02,-3.207400352265486060e-02,-2.632014906219518058e-02,-2.178691085212831197e-02,-1.870834347896536617e-02,-1.677993060718222657e-02,-1.541821318729698007e-02,-1.413059890450518198e-02,-1.271888768127383412e-02,-1.119760718060843624e-02,-9.528783595179552215e-03,-7.395362312251084307e-03,-4.191622678063216569e-03,7.521693278904617586e-04,7.849281024835425002e-03,1.701834791730616470e-02,2.762438502160808468e-02,3.859389095056089958e-02,4.866693336513264884e-02,5.675955719470519856e-02,6.236311406013096692e-02,6.579579793508509578e-02,6.809438078773989711e-02,7.052205927953711373e-02,7.396358535762788400e-02,7.859615826520653659e-02,8.402325604617427723e-02,8.971446206792289824e-02,9.540396916726083532e-02,1.011865813058119012e-01,1.073031200583976497e-01,1.138310893328073059e-01,1.205407401113319926e-01,1.270150043048483279e-01,1.329041956651851597e-01,1.380965497709586431e-01,1.426960408018467241e-01,1.468768787641147322e-01,1.507551648909736530e-01,1.543386382091276321e-01,1.575062667710311615e-01,1.599717825157295770e-01,1.612872723106323070e-01,1.609969255202188254e-01,1.589477602133331502e-01,1.555648996905442116e-01,1.518110147511481656e-01,1.487288477669442277e-01,1.468083115972406150e-01,1.456169896332110414e-01,1.439801006904842806e-01,1.406060531354785537e-01,1.347501268911195649e-01,1.265247862397818612e-01,1.167474379283681835e-01,1.065136137995437576e-01,9.678801518483653998e-02,8.819358685857082991e-02,8.098562019101077092e-02,7.509757256477063436e-02
1.000000000000000000e+00,6.733381873358777747e-03,7.867910364011625191e-03,7.679422632547913338e-03,6.301233275472523966e-03,4.139717869267318072e-03,1.739818707702170701e-03,-4.108628042051553882e-04,-1.997316872312440879e-03,-2.864053653329015105e-03,-2.956661166820308186e-03,-2.335668271600854599e-03,-1.279545265866340650e-03,-3.473571876981335809e-04,-2.341438746134233764e-04,-1.397650453404484594e-03,-3.660411837605540616e-03,-6.085612675904933377e-03,-7.269840500107461155e-03,-5.902491388761248181e-03,-1.264137942133252085e-03,6.579965575342271340e-03,1.689523696718433707e-02,2.853805651479324884e-02,4.021730655607348021e-02,5.073961819564997561e-02,5.928077809282058380e-02,6.564298162640339052e-02,7.033960572553571433e-02,7.436887799611835437e-02,7.872837113733151260e-02,8.392594479360834803e-02,8.976839918676782215e-02,9.552388964418441486e-02,1.003126604565892782e-01,1.034721809096152828e-01,1.047270888776596215e-01,1.041695410277663353e-01,1.021591255091835598e-01,9.921609966342544162e-02,9.589805833994352602e-02,9.264735682124645988e-02,8.968517513139612207e-02,8.708637244587091875e-02,8.506725430283625100e-02,8.427996610804457112e-02,8.576013121059380961e-02,9.035028639517173055e-02,9.786113664311620053e-02,1.065674157028046604e-01,1.135265540996755196e-01,1.156829675027433446e-01,1.111645359573522895e-01,1.000194750115949022e-01,8.400787926843759912e-02,6.567511277925451585e-02,4.733406885061555713e-02,3.050235591484225933e-02,1.591394461570719981e-02,3.840126664412525995e-03,-5.617675265818249282e-03,-1.241787975240524200e-02,-1.661236397510421764e-02,-1.842638794972283750e-02,-1.832115916356071364e-02,-1.700709649889729433e-02,-1.538303734423444001e-02,-1.438206877412144188e-02,-1.473014040718997192e-02,-1.668584942612707719e-02,-1.990309592336219138e-02,-2.355320679470748746e-02,-2.670250795056249710e-02,-2.874675581249980932e-02,-2.962619379397928715e-02,-2.968116449961054337e-02,-2.927914805895752426e-02,-2.853874478140320040e-02,-2.740257051252516576e-02,-2.598976477950165273e-02,-2.488245412150907540e-02,-2.506140169317810223e-02,-2.754227575252429783e-02,-3.302912183177502542e-02,-4.186571917557533468e-02,-5.429957216747445525e-02,-7.080338669665367513e-02,-9.210732021496631505e-02,-1.187109832049489666e-01,-1.498642388383311930e-01,-1.822310151546372992e-01,-2.086511999494469194e-01,-2.175742746209256562e-01,-1.938218144298677337e-01,-1.212848957564187091e-01,1.219744055702819477e-02,2.084382015075772199e-01,4.530116235558380167e-01,7.129963757921702339e-01,9.411803607294093599e-01,1.087309015772099929e+00,1.113508763834925697e+00,1.008167276821640090e+00,7.921013685887634548e-01,5.134929201499708329e-01,2.328764335549567410e-01,4.070963392689319789e-03,-1.411909943168824788e-01,-1.991781378789216073e-01,-1.895119652674162325e-01,-1.434950963932295487e-01,-9.126072014698269341e-02,-5.284540529414306215e-02,-3.546596973056587165e-02,-3.615416502722298975e-02,-4.698632973171306543e-02,-5.999556729798118104e-02,-7.002088518456769939e-02,-7.526967760522998430e-02,-7.640822589864287862e-02,-7.522812694704943126e-02,-7.357376693287331904e-02,-7.272177659820511231e-02,-7.313994382631645863e-02,-7.455138057284749209e-02,-7.626602430713595726e-02,-7.765264348931129323e-02,-7.849780631911658368e-02,-7.902639961375396149e-02,-7.958764726738624951e-02,-8.027281566279272085e-02,-8.079058289430400552e-02,-8.070724410591688380e-02,-7.984114641923323319e-02,-7.846508805543063458e-02,-7.713862648247793441e-02,-7.631663874108393641e-02,-7.607157425422379771e-02,-7.614835114629854573e-02,-7.625635487951137881e-02,-7.630260998489653279e-02,-7.637232563005177943e-02,-7.653716058792736643e-02,-7.672978492162399466e-02,-7.682784988791101222e-02,-7.685862383181610302e-02,-7.709688876269468749e-02,-7.791783696092111078e-02,-7.950742152685519315e-02,-8.169310962098529083e-02,-8.406253652733944315e-02,-8.626107146709427465e-02,-8.817962544372758005e-02,-8.985352275107913456e-02,-9.118352783596170297e-02,-9.177320770890437518e-02,-9.108459428977989936e-02,-8.883324744754633739e-02,-8.531542054494214988e-02,-8.138629761004706475e-02,-7.808200626001099431e-02,-7.616236701426847000e-02,-7.588663438456852428e-02,-7.710008362288789385e-02,-7.944932347402301753e-02,-8.251113717800798164e-02,-8.580627401486667916e-02,-8.883053742571477007e-02,-9.118482979425429624e-02,-9.271471586741857063e-02,-9.350932806021461374e-02,-9.373460005533812422e-02,-9.344139566700496169e-02,-9.251903922358228893e-02,-9.083148391678912137e-02,-8.840726104612890712e-02,-8.551389758948484132e-02,-8.256587948678119349e-02,-7.996733892051284542e-02,-7.802702943004471980e-02,-7.698360743458505795e-02,-7.705399724542320861e-02,-7.839061673413226516e-02,-8.093831417431880670e-02,-8.432491388569966773e-02,-8.794649323869994928e-02,-9.126200625940980582e-02,-9.410783163378862171e-02,-9.677432968481841646e-02,-9.974752842577312706e-02,-1.032959970844946340e-01,-1.072265914289533828e-01,-1.109961082992337311e-01,-1.140683824678807301e-01,-1.162198487946504571e-01,-1.175782944451111561e-01,-1.184323499675574154e-01,-1.190274375125543738e-01,-1.195123057818352347e-01,-1.200013380309390837e-01,-1.205950888158972140e-01,-1.212747922901930564e-01,-1.217528041832171143e-01,-1.214315198522302047e-01,-1.195358833603982207e-01,-1.153450231404458542e-01,-1.083938835657132782e-01,-9.857662890106445863e-02,-8.617726300832732889e-02,-7.187946070618651817e-02,-5.674265343209270590e-02,-4.205196294273048224e-02,-2.897790627806292110e-02,-1.815151485634654283e-02,-9.425902869463261696e-03,-2.050883686978450561e-03,4.792015929437999817e-03,1.143912250591255786e-02,1.756165546680682824e-02,2.246203719146969841e-02,2.560257731805159337e-02,2.697261355230432672e-02,2.707107707255974188e-02,2.660156733830273262e-02,2.616482958875962841e-02,2.614521382535795607e-02,2.675052365858565304e-02,2.804218597158185736e-02,2.988872268619041303e-02,3.193693434766944894e-02,3.372544628593877880e-02
1.000000000000000000e+00,-9.260193093850399570e-03,-1.077434205639605548e-02,-1.238567776682284773e-02,-1.402967854825666952e-02,-1.544647255213090105e-02,-1.629839556216928012e-02,-1.637269358833635599e-02,-1.569770646674365985e-02,-1.449465979238069233e-02,-1.303256247615638096e-02,-1.152495911484964324e-02,-1.014308145548653041e-02,-9.080044254926616931e-03,-8.533300374821832165e-03,-8.563390827130618055e-03,-8.946975096399118962e-03,-9.192488778490059270e-03,-8.755306243351503037e-03,-7.296041823617876662e-03,-4.767075192626021862e-03,-1.259261920816952436e-03,3.238044891193002459e-03,8.917520244449870029e-03,1.595547685337254593e-02,2.417428648600071506e-02,3.288209032339651366e-02,4.110880642270146879e-02,4.812431648250227456e-02,5.385582405797103428e-02,5.888770553282276360e-02,6.406624436481589413e-02,7.001658282005110423e-02,7.687075438628272750e-02,8.427351463262774955e-02,9.153344269716028048e-02,9.777938918070012975e-02,1.021034294048769747e-01,1.037529381519680383e-01,1.023831438716788639e-01,9.825812355202392934e-02,9.224337770952902027e-02,8.555093188979566443e-02,7.938987071510880678e-02,7.474750396916444994e-02,7.237414428147025125e-02,7.279519668640174745e-02,7.610543524037276242e-02,8.154669515534009039e-02,8.722316626161932818e-02,9.038879314343740978e-02,8.839136505268992139e-02,7.983265606604868225e-02,6.526082080580886124e-02,4.698227600014141109e-02,2.813871712952633122e-02,1.158332143609981484e-02,-9.315220326848400265e-04,-9.033757888131514410e-03,-1.353197454436413580e-02,-1.590664419826063811e-02,-1.767646127600673925e-02,-1.983336529138059537e-02,-2.254220071705522604e-02,-2.522626320922079224e-02,-2.699937887954639154e-02,-2.723761330913378881e-02,-2.600092105642520107e-02,-2.407306338058150946e-02,-2.258675962964266926e-02,-2.244953004311838959e-02,-2.391812082177767126e-02,-2.656595129659175200e-02,-2.960949440913555539e-02,-3.232602593281578424e-02,-3.429017583323658996e-02,-3.535705832336252102e-02,-3.552975054097593649e-02,-3.489071220278483487e-02,-3.365145569610596826e-02,-3.224119751979563631e-02,-3.134399837821415929e-02,-3.187271775578536664e-02,-3.491886604984451026e-02,-4.169170090049108268e-02,-5.340667522769393383e-02,-7.106906926623834941e-02,-9.513661995767896951e-02,-1.250791947846513763e-01,-1.588312456320367660e-01,-1.921152767769202796e-01,-2.177350068795380900e-01,-2.251960783036322244e-01,-2.012188326619298306e-01,-1.316818294949259061e-01,-5.245315016599512957e-03,1.816571786987049020e-01,4.196428335554226452e-01,6.831722390203135431e-01,9.318444433029926532e-01,1.117747817181212966e+00,1.198003280549417404e+00,1.148769174627433998e+00,9.752315035684127054e-01,7.127182887527658828e-01,4.172457337816786738e-01,1.483942142901534256e-01,-4.881368983475398160e-02,-1.556831632730418802e-01,-1.809978949422650363e-01,-1.523959306857020912e-01,-1.029895156540321099e-01,-5.939005774401021065e-02,-3.537149769239901487e-02,-3.201827612645456733e-02,-4.232257739987085876e-02,-5.701129890665447564e-02,-6.893973621449846212e-02,-7.490431368576570825e-02,-7.521236143061041379e-02,-7.213323129195116368e-02,-6.832042173005656305e-02,-6.578017536573022017e-02,-6.545576941590564024e-02,-6.727311503648381041e-02,-7.048645846880273458e-02,-7.416766818316923582e-02,-7.763312461047368329e-02,-8.061151590986675997e-02,-8.311043726301878265e-02,-8.514642308426388639e-02,-8.658477832922770179e-02,-8.722066475235100425e-02,-8.701305766055961177e-02,-8.623973723846131700e-02,-8.540806217870781925e-02,-8.497986665713649912e-02,-8.513242197116711873e-02,-8.572553509328260934e-02,-8.645016694960440395e-02,-8.699731421967438205e-02,-8.711954336230851026e-02,-8.660118412539566379e-02,-8.525583701100584999e-02,-8.302748987394696634e-02,-8.012453115116416336e-02,-7.702448840464748425e-02,-7.427097551774212991e-02,-7.217944211741826599e-02,-7.068176756765928714e-02,-6.944725627312960115e-02,-6.818931917670841003e-02,-6.690776238144385824e-02,-6.587750094709644844e-02,-6.541920480495272416e-02,-6.566136743913746077e-02,-6.647680771375848174e-02,-6.760486027912129825e-02,-6.882448302277309471e-02,-7.003268139015185467e-02,-7.118888522802359342e-02,-7.221477770063529367e-02,-7.298120408897089406e-02,-7.341612566911089044e-02,-7.361669819773078438e-02,-7.381676460309091747e-02,-7.420427422866789080e-02,-7.475292316127733760e-02,-7.523705042438061374e-02,-7.542177623269027964e-02,-7.524475339577808841e-02,-7.481727224422814182e-02,-7.425625701319454874e-02,-7.352131079347955234e-02,-7.241296278013402421e-02,-7.072569529913780295e-02,-6.841626665924754880e-02,-6.566332498624810610e-02,-6.281480590311015744e-02,-6.031076525989707837e-02,-5.864286462320809912e-02,-5.830296953752082262e-02,-5.962130327654616146e-02,-6.250419561493091025e-02,-6.626568829364602731e-02,-6.978374502685610881e-02,-7.200178629415585063e-02,-7.249857444823455677e-02,-7.173366906186171010e-02,-7.077058351817928916e-02,-7.064557749285162169e-02,-7.179110332231820879e-02,-7.385584692622941538e-02,-7.597101131964519027e-02,-7.723889719221725680e-02,-7.714582323503828276e-02,-7.572411368746698179e-02,-7.347127538593704876e-02,-7.113556464857211104e-02,-6.945381886721911646e-02,-6.887462797379606538e-02,-6.933461561474608958e-02,-7.023734932789987839e-02,-7.074469505474674513e-02,-7.027166729903337739e-02,-6.885266627579382515e-02,-6.706997917935113296e-02,-6.555548954877805923e-02,-6.443477438736124052e-02,-6.314042170044573132e-02,-6.071897906376599180e-02,-5.637619992472898273e-02,-4.987197618830982448e-02,-4.155189544732221935e-02,-3.208731448112024653e-02,-2.215810874414119933e-02,-1.227453414338095829e-02,-2.780995794770645211e-03,6.049108534744203000e-03,1.394752548080545329e-02,2.066401086870455622e-02,2.601456545828343195e-02,2.989809679556944266e-02,3.228125821958308106e-02,3.321588663300523159e-02,3.291503646954886675e-02,3.181150384928499442e-02,3.049414238749106193e-02,2.950971713666412921e-02,2.914151571998650075e-02,2.931849034697400769e-02
0.000000000000000000e+00,-4.766548569726331702e-02,-5.126367772863687361e-02,-5.354191771767878583e-02,-5.447948879526468002e-02,-5.428594718710918338e-02,-5.323692943411407336e-02,-5.168531098837614995e-02,-5.020350033739379852e-02,-4.961638659134667839e-02,-5.073806906745918083e-02,-5.389239801678578218e-02,-5.854803366646565976e-02,-6.339717857458609940e-02,-6.691932034258643580e-02,-6.811848987537241773e-02,-6.699212027752031451e-02,-6.447637908472002299e-02,-6.195251898994021816e-02,-6.063452487387788192e-02,-6.115116560552141117e-02,-6.344478867160678603e-02,-6.691518324724914091e-02,-7.067843512153272612e-02,-7.386665675819649446e-02,-7.593122347222922008e-02,-7.685922199594794058e-02,-7.715605815427513392e-02,-7.752468110095168952e-02,-7.839283045381872927e-02,-7.961894591137554100e-02,-8.062549383606409936e-02,-8.087660801153931378e-02,-8.031978183231874846e-02,-7.943313887979035204e-02,-7.885629724942373742e-02,-7.893360343630788367e-02,-7.954536423852971716e-02,-8.031730339242514061e-02,-8.096357506097059953e-02,-8.144213875387255885e-02,-8.182871945032656191e-02,-8.210388742377976168e-02,-8.210856088548536269e-02,-8.171620374111358831e-02,-8.103456533444615417e-02,-8.042600407042257982e-02,-8.031705483960860370e-02,-8.095573324032796780e-02,-8.230135454315856691e-02,-8.409905526377166318e-02,-8.603662824876141813e-02,-8.784268058781895261e-02,-8.928684126687039257e-02,-9.017142317961708564e-02,-9.041263799026165449e-02,-9.018081969311388113e-02,-8.994692003993773333e-02,-9.031516062462928429e-02,-9.170153205074597913e-02,-9.408180360485483840e-02,-9.700940457284740193e-02,-9.988788543680728049e-02,-1.022728734090602859e-01,-1.039843023091904517e-01,-1.050157656924431693e-01,-1.054095008396756933e-01,-1.052467912609423156e-01,-1.047355531490864605e-01,-1.042482310908153936e-01,-1.041978494587003645e-01,-1.048016954307826876e-01,-1.059163056238695277e-01,-1.070928018577720353e-01,-1.078155460588741954e-01,-1.077303461934849826e-01,-1.067012389252503940e-01,-1.047228721086854303e-01,-1.018611481893859222e-01,-9.833829462971119262e-02,-9.466725907547982044e-02,-9.159441482188029893e-02,-8.971126472391688367e-02,-8.890473256364138377e-02,-8.807624467457980666e-02,-8.550726778705532161e-02,-7.985826015517649701e-02,-7.132135961688819414e-02,-6.222178725131157634e-02,-5.649291962671502965e-02,-5.783877874313493594e-02,-6.692470261775204654e-02,-7.854650988791762878e-02,-8.028149996771831443e-02,-5.424392430493791412e-02,1.722051189377886773e-02,1.429287957860907454e-01,3.147450032578377743e-01,5.048030157850521560e-01,6.717136118291658908e-01,7.750408671574771091e-01,7.918720197082682599e-01,7.267323553079516607e-01,6.091565019392499725e-01,4.803615730793482919e-01,3.765655459793972315e-01,3.173293303786983710e-01,3.030750621784069621e-01,3.204153283916491568e-01,3.507605858669216592e-01,3.778347429388217993e-01,3.918538947478486523e-01,3.902984966965438174e-01,3.763548555482828517e-01,3.562362570258620909e-01,3.363200768489523207e-01,3.208332261683257691e-01,3.106816415473368509e-01,3.036979879298384866e-01,2.960362527701795865e-01,2.839646615111269257e-01,2.652200112814607769e-01,2.394303349687244842e-01,2.076374396228242991e-01,1.713267967751077869e-01,1.314529228143177519e-01,8.785377741985313238e-02,3.934968633564358415e-02,-1.532106310735500444e-02,-7.593400891538537589e-02,-1.392909855811613751e-01,-1.988106625040191866e-01,-2.458813516445623182e-01,-2.727581004786682195e-01,-2.757828647648826181e-01,-2.572988067857879813e-01,-2.251940697571581107e-01,-1.902351316175822094e-01,-1.624378393382439889e-01,-1.480296153302977091e-01,-1.480474326998398316e-01,-1.587651390873618118e-01,-1.734676109664866905e-01,-1.848208755167143891e-01,-1.871468015563787779e-01,-1.780717865657859555e-01,-1.591474004789381058e-01,-1.352173691334668526e-01,-1.126655690180938807e-01,-9.715820446722614467e-02,-9.179604118009193625e-02,-9.643854246986863221e-02,-1.083594820647605650e-01,-1.237065413489336213e-01,-1.389311938295847149e-01,-1.516014450310704254e-01,-1.605351424398242799e-01,-1.655503466250714262e-01,-1.671234186712584613e-01,-1.660512854790835990e-01,-1.631171131353199022e-01,-1.588283774459752773e-01,-1.533646584819352288e-01,-1.467820258908088538e-01,-1.393225436715373744e-01,-1.315699015064149546e-01,-1.243034210019250130e-01,-1.181504554310381372e-01,-1.133028141762274371e-01,-1.094992085415959771e-01,-1.062465675318782915e-01,-1.030753132341545031e-01,-9.965841324382671007e-02,-9.580826471839706815e-02,-9.148110128565167809e-02,-8.684471821531603020e-02,-8.230990875531005169e-02,-7.838617480597728782e-02,-7.536693996756212155e-02,-7.305326095085681870e-02,-7.077678646305385346e-02,-6.778302938424542179e-02,-6.373247687755997926e-02,-5.895380208018201340e-02,-5.426482442508908516e-02,-5.049480552135383882e-02,-4.802821547288776971e-02,-4.663316608480280734e-02,-4.562658336440068158e-02,-4.422781806066903437e-02,-4.187750538425814156e-02,-3.836909160811603769e-02,-3.379583662483538059e-02,-2.843940244578514742e-02,-2.270755389185888720e-02,-1.709133944876335340e-02,-1.203637891057755469e-02,-7.731835474151007789e-03,-3.986425366439432655e-03,-3.507997193537651945e-04,3.569036322864926458e-03,7.861434824806385127e-03,1.233999869602055155e-02,1.681589130448167893e-02,2.133483127985008956e-02,2.613243169925068624e-02,3.134692796059533604e-02,3.678206747860976455e-02,4.196965154939064774e-02,4.648426941061964413e-02,5.022216357660969771e-02,5.341642879548788581e-02,5.643319433875394059e-02,5.957211364877540438e-02,6.301750954496332380e-02,6.688773528596494988e-02,7.124211131005338260e-02,7.600056525162625365e-02,8.087511007941307339e-02,8.542955247972543187e-02,8.925828815955674789e-02,9.215075685730765576e-02,9.411094978802458932e-02,9.522431494409769326e-02,9.550412213104939041e-02,9.488212242633720095e-02,9.337980300627747587e-02,9.130642359517431028e-02,8.926574154499128388e-02,8.789157438583956872e-02,8.746074635735814895e-02
0.000000000000000000e+00,-3.261936868867518907e-02,-3.367134089809104003e-02,-3.660292641113643136e-02,-4.058269501761335718e-02,-4.450100980692234254e-02,-4.746722858553537733e-02,-4.911934714648897443e-02,-4.966603582508778009e-02,-4.971377165421597688e-02,-4.998021769297381067e-02,-5.100239073507521759e-02,-5.293948956257713695e-02,-5.553891460571227373e-02,-5.828457262618028101e-02,-6.067525691098666490e-02,-6.248958661835844752e-02,-6.385794618453743965e-02,-6.507268720185767352e-02,-6.628024804575270712e-02,-6.732392759644884039e-02,-6.789586942755182486e-02,-6.787849194339692915e-02,-6.755996753979488789e-02,-6.749424998352479554e-02,-6.808339875571677025e-02,-6.921959316578243926e-02,-7.030424340398304384e-02,-7.066384427315450245e-02,-7.004937726849286284e-02,-6.883129348919871104e-02,-6.775675618368356967e-02,-6.748277136989937197e-02,-6.823022735060799149e-02,-6.974620694321904957e-02,-7.150577530600396581e-02,-7.295795692818737854e-02,-7.368746986934004983e-02,-7.350518610129889996e-02,-7.252895139534228097e-02,-7.123116242035670842e-02,-7.034276017503415801e-02,-7.055998385429126940e-02,-7.217274344131578701e-02,-7.484953455964626912e-02,-7.774597314387875213e-02,-7.989047907507013102e-02,-8.060885433235796815e-02,-7.974070490606655071e-02,-7.758139727385560125e-02,-7.468253436213638519e-02,-7.168392646346580244e-02,-6.922800065433014349e-02,-6.787693410878324618e-02,-6.795267499614454643e-02,-6.934605251885465893e-02,-7.145774828422826741e-02,-7.340104741399276767e-02,-7.440932258921356679e-02,-7.420854445818177159e-02,-7.311763411920418898e-02,-7.183680879563496269e-02,-7.109280779655499649e-02,-7.135383344344269074e-02,-7.271595108849600309e-02,-7.493640456255135085e-02,-7.754205500962770004e-02,-7.995976584792983954e-02,-8.164846111005158447e-02,-8.222665871816808858e-02,-8.157170234130170505e-02,-7.983656878378110611e-02,-7.734338126670320390e-02,-7.439808886693739798e-02,-7.115915084705995430e-02,-6.767351661020308551e-02,-6.405363896419559444e-02,-6.063645779137807196e-02,-5.797469678394564369e-02,-5.665438123442106261e-02,-5.706239396806137704e-02,-5.921821710421133755e-02,-6.267190603079908495e-02,-6.641815408560862444e-02,-6.888754202891610168e-02,-6.824264484254072283e-02,-6.317282731042442312e-02,-5.402179186206449574e-02,-4.359555940548268810e-02,-3.678329691480475283e-02,-3.847151676312889068e-02,-5.010864260505355078e-02,-6.629759315428206123e-02,-7.340573959384694147e-02,-5.192851857209589833e-02,1.693246846314195794e-02,1.420744938144082870e-01,3.144178108408806072e-01,5.047057217544159702e-01,6.704786408927190244e-01,7.711602210906751687e-01,7.848237698102978888e-01,7.177482395927337055e-01,6.011675655429505882e-01,4.770451922908105491e-01,3.808892043485446188e-01,3.302417972491460962e-01,3.229368335769118858e-01,3.434761904427719448e-01,3.725750156992136963e-01,3.950542967225126878e-01,4.035535487835369417e-01,3.981139838384974428e-01,3.832737514918448385e-01,3.646287217336010023e-01,3.462521952644431744e-01,3.295387926217918095e-01,3.133682577702704974e-01,2.951121796487795046e-01,2.718782112327328693e-01,2.414414846357086641e-01,2.025509795395898927e-01,1.546700865585908247e-01,9.754634715276515322e-02,3.111611700624582200e-02,-4.395082127653965332e-02,-1.252156980708052925e-01,-2.075853017277617674e-01,-2.834153282063901491e-01,-3.440814170712482301e-01,-3.826555329077939160e-01,-3.965040800436567259e-01,-3.884420376088434934e-01,-3.657529532749763113e-01,-3.375024185968601986e-01,-3.114010077872859661e-01,-2.915436528357865376e-01,-2.777678495822017979e-01,-2.666048172033444463e-01,-2.532547927282086109e-01,-2.338105378473180895e-01,-2.069861340389411164e-01,-1.747860421293542244e-01,-1.418652881520240938e-01,-1.137955922203823661e-01,-9.494827505773353882e-02,-8.694370693006865658e-02,-8.834632887436337512e-02,-9.560118964077983506e-02,-1.045679599742983523e-01,-1.118435206846239566e-01,-1.154095913542116519e-01,-1.146451020934227266e-01,-1.100147867726906925e-01,-1.026884306404857589e-01,-9.415956720247446732e-02,-8.585263598176591515e-02,-7.877503124111343014e-02,-7.334558776926725088e-02,-6.947603208036616518e-02,-6.681415973092000304e-02,-6.494367914174840883e-02,-6.341771903927315157e-02,-6.171077753512994174e-02,-5.927608190726066373e-02,-5.577120190944584444e-02,-5.129705961477667997e-02,-4.641694785335025164e-02,-4.187611755752046472e-02,-3.819542354148248997e-02,-3.543085444138990847e-02,-3.326437062815649354e-02,-3.133046359348001797e-02,-2.950600680758441383e-02,-2.793981718571595871e-02,-2.682669478825520579e-02,-2.614215645206475341e-02,-2.556930138625364279e-02,-2.466485166033149240e-02,-2.310337583362768316e-02,-2.079819329563239311e-02,-1.784483013142452654e-02,-1.440178836631898947e-02,-1.064011063913859918e-02,-6.760917023973425644e-03,-2.971038515570951881e-03,6.376279998373951541e-04,4.203765943886157534e-03,8.049817394301840220e-03,1.245108784230318164e-02,1.739782312334963582e-02,2.257834656055093120e-02,2.764194772451420562e-02,3.254780292720946960e-02,3.769861869123786180e-02,4.371452897939741983e-02,5.101115229822735658e-02,5.952721731322110216e-02,6.881413553889008383e-02,7.836903627576605191e-02,8.788550277017621870e-02,9.721111450539871024e-02,1.061170203910286325e-01,1.141853767351653504e-01,1.210038910671382695e-01,1.265361394712387899e-01,1.313276730149643690e-01,1.363188709021766476e-01,1.423675403520480165e-01,1.498264362738544742e-01,1.584466519313111887e-01,1.675740511441667635e-01,1.763864106289568523e-01,1.839901378598688408e-01,1.894450726408309638e-01,1.919220672105370618e-01,1.910590344441812083e-01,1.872983581033711986e-01,1.818679715554328280e-01,1.762864016063695194e-01,1.716606263005085731e-01,1.682308976025094216e-01,1.654129314527396366e-01,1.622007933357162146e-01,1.575891644243465062e-01,1.507977372362014901e-01,1.413523906731044000e-01,1.292025443001709184e-01,1.149116719026745254e-01,9.972355171889546455e-02,8.527598997897350985e-02
1.000000000000000000e+00,-1.505916867510474939e-02,-1.594299056650888904e-02,-1.533469237751838680e-02,-1.305236863783045334e-02,-9.392913311555063996e-03,-4.998050388457668351e-03,-7.048742480045236836e-04,2.612318213499243216e-03,4.257923397871305610e-03,3.969506577872716074e-03,2.076392705959404904e-03,-5.873772449752924767e-04,-3.032543175953421929e-03,-4.559830325766182219e-03,-5.043173354088656586e-03,-4.871185477583277711e-03,-4.575902257253121330e-03,-4.382483435495966931e-03,-3.966646885094531408e-03,-2.567683745480155329e-03,6.205257219839872699e-04,6.012890673819618059e-03,1.338137584974966564e-02,2.189081585997815216e-02,3.037994984755820402e-02,3.777028061766684458e-02,4.346914675229772429e-02,4.762268451755122950e-02,5.108477584807584460e-02,5.506166401927041487e-02,6.055720241105760210e-02,6.787542878648991640e-02,7.643189421774505832e-02,8.496780340931230080e-02,9.204424911697060840e-02,9.655947247294080493e-02,9.806279401061565593e-02,9.679538906699332312e-02,9.354102958038015836e-02,8.939937391895286245e-02,8.550640657290196900e-02,8.267043905323442909e-02,8.099581812340186926e-02,7.974607812729442302e-02,7.770264459271640500e-02,7.397175994662734400e-02,6.877674838602768070e-02,6.363366592391517251e-02,6.065259605988135988e-02,6.132007732328451782e-02,6.551831727686137363e-02,7.139724489755357173e-02,7.615209118734411753e-02,7.720790372140416691e-02,7.314974431631947327e-02,6.401045108463260247e-02,5.097443274429043492e-02,3.583919248421148229e-02,2.054300276571723038e-02,6.842059162565089156e-03,-3.937311394929863748e-03,-1.110847117204310716e-02,-1.472305729810211190e-02,-1.548785241656253954e-02,-1.454394640339129983e-02,-1.322106359762715774e-02,-1.282392042440884047e-02,-1.441137678790333811e-02,-1.851862130438213308e-02,-2.488256915011946915e-02,-3.236714605460170452e-02,-3.928353554932446923e-02,-4.407789979761039811e-02,-4.604829147029664699e-02,-4.563504952556220878e-02,-4.407097502960002910e-02,-4.262706946873950908e-02,-4.198078079392991713e-02,-4.211526220047685787e-02,-4.272847764390651226e-02,-4.376248747069436118e-02,-4.565993139819114061e-02,-4.926190979973217587e-02,-5.555230445398123829e-02,-6.547880687843103675e-02,-7.987432134178894250e-02,-9.929056293042251569e-02,-1.235369018381049511e-01,-1.509142309159373363e-01,-1.774045868017520844e-01,-1.962198945259047145e-01,-1.979993885550378196e-01,-1.716879314765603071e-01,-1.060462638059544022e-01,8.051299892681716350e-03,1.742998478990845646e-01,3.869830688860182444e-01,6.278131988694763965e-01,8.658127782465472322e-01,1.061870235502510473e+00,1.177689389022349209e+00,1.186612665953543422e+00,1.082449330834830192e+00,8.827079714151417900e-01,6.245326274333186101e-01,3.544993637458717095e-01,1.159739137122409447e-01,-6.138132752795474878e-02,-1.666154800366078381e-01,-2.062455502499365156e-01,-1.983939594949982732e-01,-1.651391027788865762e-01,-1.258060649099879136e-01,-9.297804721001863559e-02,-7.172928463645115993e-02,-6.138733298947954276e-02,-5.841672264578904455e-02,-5.901655287145879392e-02,-6.061739947342026369e-02,-6.220797830451586102e-02,-6.390039817359523255e-02,-6.623372915649965165e-02,-6.957026842939519062e-02,-7.376167578450018580e-02,-7.814164744483233227e-02,-8.180856732818500565e-02,-8.405421177299439439e-02,-8.470382074362518832e-02,-8.415133478459432825e-02,-8.305608184702005514e-02,-8.191746025081379778e-02,-8.084605188967980416e-02,-7.968351960994700389e-02,-7.832721875319532956e-02,-7.696062243647075474e-02,-7.600502010092601013e-02,-7.585920947119793867e-02,-7.664995285596287733e-02,-7.817105913019008201e-02,-8.001584116430378313e-02,-8.176047160382662882e-02,-8.305606865722030274e-02,-8.362258299770403136e-02,-8.325142017863601529e-02,-8.188610634908499719e-02,-7.971891096379910002e-02,-7.718371873829453500e-02,-7.481092148599033376e-02,-7.303909316074463920e-02,-7.210899014447140487e-02,-7.207115232220462353e-02,-7.282746280255424087e-02,-7.412304938152655676e-02,-7.551222651388633800e-02,-7.641609189362710830e-02,-7.635004597410896543e-02,-7.524059360894137793e-02,-7.361034546135017398e-02,-7.243152831314673967e-02,-7.265281632812221890e-02,-7.465441756621665759e-02,-7.798362684225108865e-02,-8.156489075813974643e-02,-8.425613711695455199e-02,-8.538087473853223086e-02,-8.490722943222363261e-02,-8.323524092836610822e-02,-8.083598922764212436e-02,-7.802688706468600965e-02,-7.497378228533613242e-02,-7.179872373437652666e-02,-6.863566567964270171e-02,-6.560552044846391928e-02,-6.280517445660889486e-02,-6.037791835437555932e-02,-5.859093573598042615e-02,-5.777191289812658864e-02,-5.807111828426265998e-02,-5.921646505964237722e-02,-6.049848350931311819e-02,-6.106858291801844224e-02,-6.038574810258216102e-02,-5.851748647301470430e-02,-5.610407946418529551e-02,-5.405027685535762627e-02,-5.319267727045096095e-02,-5.413920545622171593e-02,-5.725689189903061110e-02,-6.263637832069408884e-02,-6.994967217477095212e-02,-7.834080796092077192e-02,-8.657842137523995285e-02,-9.352013403672258807e-02,-9.864700302751543137e-02,-1.023057187311027655e-01,-1.054761264776404861e-01,-1.092144692811310852e-01,-1.141280602931632748e-01,-1.201659081535845081e-01,-1.267550678995299218e-01,-1.330961066932620507e-01,-1.384149467500904174e-01,-1.421174907139292620e-01,-1.439122800730869844e-01,-1.439247277410429238e-01,-1.427076397437502808e-01,-1.410351235889429344e-01,-1.395156291073872123e-01,-1.382502696803631081e-01,-1.367913573393369220e-01,-1.344539236312386199e-01,-1.307589483347950943e-01,-1.256840064869034768e-01,-1.195624687588161261e-01,-1.127650562760470487e-01,-1.054572668116137285e-01,-9.761138742381722522e-02,-8.918776885153578693e-02,-8.026086742210464253e-02,-7.097441064212549333e-02,-6.141362525306147402e-02,-5.156000637451019913e-02,-4.139702838963305043e-02,-3.107896883949226932e-02,-2.099711271864583562e-02,-1.164395422897435833e-02,-3.344545559491282714e-03,3.942978883553548662e-03,1.059081886982237222e-02,1.704954024132204066e-02
1.000000000000000000e+00,-2.146404404509206360e-02,-2.153461151538810237e-02,-2.193895367198967286e-02,-2.272024972190574144e-02,-2.375048298194093813e-02,-2.465108882010747654e-02,-2.476986835643116627e-02,-2.337094256695328165e-02,-2.002892103521182465e-02,-1.500546520853439716e-02,-9.331289780088675503e-03,-4.476414272257267686e-03,-1.749910412725541814e-03,-1.750252565910152391e-03,-4.163088489646153169e-03,-7.982010947162179737e-03,-1.197297076752709168e-02,-1.511421532708921191e-02,-1.685633971807396284e-02,-1.719642755655145794e-02,-1.659301571955097004e-02,-1.570711195454907450e-02,-1.498843108061720560e-02,-1.427162203546450403e-02,-1.266124607275564279e-02,-8.892030206574509654e-03,-2.043914225938134061e-03,7.815028821687209498e-03,1.950929497061512294e-02,3.127684885855130936e-02,4.160067637338826785e-02,4.983348701935661623e-02,5.630130771161667713e-02,6.194773770079291253e-02,6.781035770354912340e-02,7.459139031787651031e-02,8.242498316903376643e-02,9.082564592301194117e-02,9.878150354548913270e-02,1.049828685353388774e-01,1.081820372346619791e-01,1.076228147769827392e-01,1.033811544654218151e-01,9.642797967308354423e-02,8.835499816152884989e-02,8.091989797106872995e-02,7.565737931326570187e-02,7.366501254782008290e-02,7.545980437674773555e-02,8.075388266976878116e-02,8.818580410347250098e-02,9.529295780225101320e-02,9.903921042696527122e-02,9.688073693437183886e-02,8.786768254971125125e-02,7.309352448742600927e-02,5.517669071219977878e-02,3.711533146878965433e-02,2.122400692874123682e-02,8.666827852069708404e-03,-3.930192444662227499e-04,-6.361751520441378920e-03,-9.854370511550317180e-03,-1.154449945989528478e-02,-1.213708854472791802e-02,-1.230163825348209658e-02,-1.251056989450127430e-02,-1.289623753172754010e-02,-1.329157058402822070e-02,-1.348243853706729278e-02,-1.350000788734987377e-02,-1.372150968062072623e-02,-1.469485793771145750e-02,-1.682096099626687394e-02,-2.012262134411338041e-02,-2.423138455422313084e-02,-2.854146039565040593e-02,-3.238712422060501667e-02,-3.516744801049342950e-02,-3.646854185923351782e-02,-3.625685314422070343e-02,-3.509681327833977238e-02,-3.422070270843856343e-02,-3.532297072894697437e-02,-4.016537534059438919e-02,-5.024826886822653799e-02,-6.671292858361307920e-02,-9.032661621896996562e-02,-1.211514102231975726e-01,-1.575863926446054997e-01,-1.949200410520520732e-01,-2.240675220972384862e-01,-2.314264242372963687e-01,-2.005779376110634893e-01,-1.160290698935796394e-01,3.142087660344639738e-02,2.387935978852226693e-01,4.864880331584678363e-01,7.379037248332909193e-01,9.452864484026424208e-01,1.061742980052029495e+00,1.056123794176651698e+00,9.250341312143864902e-01,6.963436044363365829e-01,4.216547778017923909e-01,1.600330906193995484e-01,-4.052184028791089299e-02,-1.562664921925836503e-01,-1.907130173846792731e-01,-1.676169155111219278e-01,-1.184901765972803250e-01,-7.061878328877335687e-02,-3.993157873709041183e-02,-2.994130874668066156e-02,-3.526005398203382185e-02,-4.694772877776304948e-02,-5.717982029015806350e-02,-6.179562756617035246e-02,-6.052457179586743369e-02,-5.561471757571580937e-02,-4.997441998670594521e-02,-4.577648840532090591e-02,-4.395711206448823377e-02,-4.447111509740474256e-02,-4.682375026416198821e-02,-5.043205488076451387e-02,-5.468412679691828093e-02,-5.887590361068233830e-02,-6.226640604019692549e-02,-6.430691979503402878e-02,-6.488085926066695930e-02,-6.434640244619542482e-02,-6.332786794920304552e-02,-6.239654110544606835e-02,-6.183642820341695573e-02,-6.158192055434706658e-02,-6.128903833716208699e-02,-6.048096078340749887e-02,-5.874643090279964286e-02,-5.596086934223767212e-02,-5.243778375474759251e-02,-4.888930716660382092e-02,-4.615572699592995071e-02,-4.482973902665775973e-02,-4.501290855264544061e-02,-4.636742506345790243e-02,-4.840055522329529680e-02,-5.073982959405205079e-02,-5.319469680441579057e-02,-5.562148382080676912e-02,-5.779701544557706849e-02,-5.947775090176023877e-02,-6.060977124524893206e-02,-6.147050091390392906e-02,-6.254542144123072245e-02,-6.416542933535715476e-02,-6.616176413937405187e-02,-6.781855570588812832e-02,-6.818578046016929295e-02,-6.655153008619413280e-02,-6.278289690973436199e-02,-5.737327922252077189e-02,-5.124427920354462235e-02,-4.546906817992134309e-02,-4.104398204771499137e-02,-3.872071048903565765e-02,-3.886168160720021580e-02,-4.133555495567274585e-02,-4.553114871997140933e-02,-5.053179771285564587e-02,-5.538177194798611647e-02,-5.931248099623367270e-02,-6.184248556960562915e-02,-6.276484905490119226e-02,-6.209789955648010312e-02,-6.006528180694323954e-02,-5.710451149687115202e-02,-5.383093725933967705e-02,-5.088633608858674634e-02,-4.871385482619240009e-02,-4.742457181254667448e-02,-4.689710520634347152e-02,-4.705894144427842651e-02,-4.810694355955498491e-02,-5.043173972676250061e-02,-5.424592441972472118e-02,-5.919899570259135740e-02,-6.433639887161060611e-02,-6.851831107761176265e-02,-7.103025107448145137e-02,-7.192725473309732886e-02,-7.184917382685533649e-02,-7.147429326448427600e-02,-7.106165591577549845e-02,-7.041891443165500253e-02,-6.924186322891807965e-02,-6.746668667157727783e-02,-6.531557768332360570e-02,-6.303400484099108692e-02,-6.060501496506606744e-02,-5.772121604781875470e-02,-5.402290532271769585e-02,-4.935527070740212963e-02,-4.381168296048678495e-02,-3.757378824689924096e-02,-3.076151651326027719e-02,-2.346418265399356426e-02,-1.590077582433142497e-02,-8.497586818768108549e-03,-1.742580736286430563e-03,4.094789589252445169e-03,9.135164183108569411e-03,1.378934313089364566e-02,1.846573566369527283e-02,2.332836620611161357e-02,2.827560924493015271e-02,3.308761882070222760e-02,3.755344748718870973e-02,4.146572301023895846e-02,4.455804679799683227e-02,4.654357218237067245e-02,4.730055057578989169e-02,4.706325949924334423e-02,4.641007258761262882e-02,4.597425010151535985e-02,4.603848634177019894e-02,4.631043729846112678e-02,4.607310632223186181e-02,4.462366961090255546e-02,4.169248084709474556e-02
0.000000000000000000e+00,-7.181613394749369883e-02,-7.281333875154956392e-02,-7.175525236353941239e-02,-6.888678220615830627e-02,-6.484264325845306987e-02,-6.062109083519056502e-02,-5.733229511556961477e-02,-5.582279857367782039e-02,-5.639598271676802416e-02,-5.880208505838833283e-02,-6.247609109527294674e-02,-6.682073916974749783e-02,-7.133594860004513483e-02,-7.558269782104752588e-02,-7.914590771230833877e-02,-8.173935999314685397e-02,-8.339813465021858607e-02,-8.454374830114516626e-02,-8.576630077102465055e-02,-8.740829097037788875e-02,-8.923421810466343473e-02,-9.044172820586891814e-02,-9.003473466072699216e-02,-8.733349895603789714e-02,-8.233173145671002224e-02,-7.574896225017135887e-02,-6.882272972309881609e-02,-6.297690558263674410e-02,-5.945810495925311912e-02,-5.896701861689237351e-02,-6.134879507029376150e-02,-6.551082974237344703e-02,-6.973412677731163911e-02,-7.234505168776179940e-02,-7.245298717715190073e-02,-7.036814280708186820e-02,-6.748337098523141120e-02,-6.570733999777250700e-02,-6.675185311633216600e-02,-7.156701615890184720e-02,-8.004059397526298858e-02,-9.092876553985963783e-02,-1.019987391406800004e-01,-1.104580428459679131e-01,-1.137227696957685275e-01,-1.103646260953370373e-01,-1.008261089878576267e-01,-8.745482054647647774e-02,-7.370587679592144337e-02,-6.284228329996481566e-02,-5.677677818790864694e-02,-5.559648503620107096e-02,-5.788121080593437023e-02,-6.150673489545725736e-02,-6.449563761085493063e-02,-6.563103744064335832e-02,-6.474910464330349558e-02,-6.269701637480211420e-02,-6.094232044022781375e-02,-6.090568159847116469e-02,-6.326994251195566799e-02,-6.762231796538854811e-02,-7.266072241508966800e-02,-7.687848751572784467e-02,-7.933759327032056941e-02,-8.006190801441118166e-02,-7.981388580895650009e-02,-7.943531088515554117e-02,-7.922910963426356423e-02,-7.878900523282354740e-02,-7.731535800715387541e-02,-7.410906656024265904e-02,-6.887800520967145290e-02,-6.172457627391209761e-02,-5.296988982617522462e-02,-4.304718948005016588e-02,-3.252793619024961502e-02,-2.214723029181114508e-02,-1.269371184020388552e-02,-4.797486989262941641e-03,1.236916417244706247e-03,5.481516804879725015e-03,8.390294352179840376e-03,1.081981203752404794e-02,1.394183210527929172e-02,1.880010555424073415e-02,2.545085525198201998e-02,3.210109978790820495e-02,3.506554342642455302e-02,3.027557000598201514e-02,1.633987431342416932e-02,-1.950876691409571565e-03,-1.167026569845974922e-02,6.613198733161665746e-03,7.273740999026623300e-02,1.976519273607287297e-01,3.745752516212267347e-01,5.755537332819166130e-01,7.572001670235192217e-01,8.752509351403594540e-01,9.021329553907342369e-01,8.386636517415994030e-01,7.133581770508424791e-01,5.697130600663865563e-01,4.485174652950313923e-01,3.741069568070627960e-01,3.499472127755264839e-01,3.632708449766948178e-01,3.944502949247764567e-01,4.259895115567415291e-01,4.477662614298333343e-01,4.577701951147566395e-01,4.596118076731094404e-01,4.588659648963927529e-01,4.599872281999604073e-01,4.646758078582464146e-01,4.717640579514633670e-01,4.782048434552562122e-01,4.805522766905588883e-01,4.763147556435147756e-01,4.646623789880758304e-01,4.461982840715346121e-01,4.218833694655237387e-01,3.916530092148184372e-01,3.535485890355206107e-01,3.040663119771601641e-01,2.398630296640361648e-01,1.601913675513900737e-01,6.886424017104922357e-02,-2.546819675144813486e-02,-1.112810702643634436e-01,-1.778234538282496557e-01,-2.189329615957785191e-01,-2.352667675498877620e-01,-2.338959620576724630e-01,-2.254450509998014718e-01,-2.200406359277217450e-01,-2.237423342772957846e-01,-2.367901340230501861e-01,-2.541900014416902387e-01,-2.682398395311992867e-01,-2.718891602434831967e-01,-2.615722411723381824e-01,-2.384571181441424714e-01,-2.077755664656380230e-01,-1.767037811564123595e-01,-1.517865265565127575e-01,-1.369378117364078440e-01,-1.326559405636643652e-01,-1.365050304623004196e-01,-1.444308590213459753e-01,-1.522829381305916829e-01,-1.570115385218336934e-01,-1.572564796659878805e-01,-1.532888498940012945e-01,-1.464490682579729919e-01,-1.383586041714068571e-01,-1.302498160623125623e-01,-1.226851475221690524e-01,-1.157055540161864154e-01,-1.091900789642139685e-01,-1.031169957544604415e-01,-9.755975697344113073e-02,-9.250461016683310389e-02,-8.773167036050760759e-02,-8.292602073157209763e-02,-7.794172723497186372e-02,-7.295845849630870628e-02,-6.834173003700674820e-02,-6.429425815624627283e-02,-6.060562308888851196e-02,-5.674919498242697591e-02,-5.227334169767742372e-02,-4.716025792140649681e-02,-4.184639648874652340e-02,-3.690443885593411300e-02,-3.268256726583252531e-02,-2.919708775776810525e-02,-2.629721082611387317e-02,-2.386052006910518997e-02,-2.179518965800433458e-02,-1.988093032747152364e-02,-1.768800914729125665e-02,-1.474829720006214269e-02,-1.088249824813283285e-02,-6.394559844810328644e-03,-1.933048381702680892e-03,1.890819939285400941e-03,4.832567566036199969e-03,7.064997849480915242e-03,8.980571681118537999e-03,1.096280856218804882e-02,1.330180709698455116e-02,1.624173842107473273e-02,2.002333040948432036e-02,2.482795062725829185e-02,3.066398136488500056e-02,3.731185245164867631e-02,4.439672323537014603e-02,5.154713830873902669e-02,5.852592001712916825e-02,6.524495408413537312e-02,7.167916864797339860e-02,7.778172423604909347e-02,8.348222964722773476e-02,8.874606593482826933e-02,9.360057440129991579e-02,9.807016342445006030e-02,1.020728859215430800e-01,1.054021170881879049e-01,1.078549426778886988e-01,1.094096647320769722e-01,1.102665630166679983e-01,1.106755979540753609e-01,1.106938257362429373e-01,1.101123337413684039e-01,1.086485206636290668e-01,1.062460201726955350e-01,1.032106849158068856e-01,1.000485580398760704e-01,9.713155884404758855e-02,9.446430798544652729e-02,9.173107305686865887e-02,8.855383353151509429e-02,8.472785979152029634e-02,8.026773674822566818e-02,7.529843490122839489e-02,6.994983997512543850e-02,6.435450567878057970e-02,5.868896732101365477e-02
0.000000000000000000e+00,-5.777648715465956430e-02,-6.233279921408232949e-02,-6.500464864648579366e-02,-6.597479491573648991e-02,-6.616245498613290699e-02,-6.662284476908694741e-02,-6.802285911082719960e-02,-7.047418860407743402e-02,-7.367814928803907704e-02,-7.713403991724475384e-02,-8.024945649109616053e-02,-8.241827218434535918e-02,-8.321105944340886906e-02,-8.265876990667087032e-02,-8.140287728427063330e-02,-8.049046432290890563e-02,-8.084727269635111346e-02,-8.274821961914703705e-02,-8.566005702154606827e-02,-8.858222742784656323e-02,-9.064429082936309445e-02,-9.153529268120448592e-02,-9.150824319610022239e-02,-9.106479296274511137e-02,-9.063262370917601896e-02,-9.043705216889746934e-02,-9.052225231053780130e-02,-9.077247123592538380e-02,-9.088175043051362201e-02,-9.036496039352001630e-02,-8.872237985633203705e-02,-8.573795333266305552e-02,-8.173141409192540008e-02,-7.755611168122994448e-02,-7.429032258216783369e-02,-7.279566355442923520e-02,-7.341751883350382257e-02,-7.598215290246627951e-02,-8.000622507840585151e-02,-8.489533162499024455e-02,-8.999668132147796429e-02,-9.458777615409860728e-02,-9.799092128344244479e-02,-9.986956083901227244e-02,-1.005090187186253176e-01,-1.007863174706389447e-01,-1.017329291148531406e-01,-1.039255945974558448e-01,-1.070987670922792234e-01,-1.102235422653764924e-01,-1.119808720376756772e-01,-1.113290525428971695e-01,-1.078775037708117890e-01,-1.019644085348360429e-01,-9.451026161241048162e-02,-8.676816520072934413e-02,-8.004177877917155459e-02,-7.539292693658135314e-02,-7.337987048983492244e-02,-7.392045883820889951e-02,-7.636328952786522462e-02,-7.974057497606068523e-02,-8.306394187466284440e-02,-8.552928544755661333e-02,-8.661318094808635737e-02,-8.613645333463951226e-02,-8.433784721398447648e-02,-8.189408167254630388e-02,-7.977737627957179334e-02,-7.892178378643990855e-02,-7.981639238379055479e-02,-8.224326615111540728e-02,-8.534345365697892927e-02,-8.801402267456155670e-02,-8.941668441800480760e-02,-8.929580672202463987e-02,-8.795305233123025535e-02,-8.598089382566596883e-02,-8.398008169901785558e-02,-8.238341174118454791e-02,-8.133314910979602685e-02,-8.053117674708289153e-02,-7.912984013165495767e-02,-7.587088121173991839e-02,-6.962229655971508002e-02,-6.021080692853597593e-02,-4.916484837985878736e-02,-3.984348920271342520e-02,-3.651919534558679958e-02,-4.231706185002626075e-02,-5.645061947210238545e-02,-7.180942967494795270e-02,-7.437886882761095275e-02,-4.585055009464891751e-02,3.017404447820432045e-02,1.597820679709757996e-01,3.316296074634722535e-01,5.156489151904869450e-01,6.706050743755611609e-01,7.590417592760331233e-01,7.629434665430429030e-01,6.915634378696924323e-01,5.767369086326995520e-01,4.583939611989935603e-01,3.684612141887804171e-01,3.211321553438250542e-01,3.125977648403595044e-01,3.278750211885331223e-01,3.497216675778418438e-01,3.653422075782012390e-01,3.690874025853455587e-01,3.616717729889281641e-01,3.475267897868953293e-01,3.318473434066429029e-01,3.183284134464782755e-01,3.080599759771561752e-01,2.996626224795689852e-01,2.903835619048530381e-01,2.775305648160157901e-01,2.595077613559276242e-01,2.359912560006555970e-01,2.073105524476110961e-01,1.735484175656074879e-01,1.339743464995236388e-01,8.716509207429133654e-02,3.176046742399792761e-02,-3.246969008365555714e-02,-1.036373631872034018e-01,-1.772120816996730630e-01,-2.463380614319420070e-01,-3.032200729515414639e-01,-3.413733708167787095e-01,-3.579567816415956671e-01,-3.550886005724044336e-01,-3.393201866907671893e-01,-3.192660057789494243e-01,-3.023283536333244981e-01,-2.919748449168580451e-01,-2.868110634942885317e-01,-2.818278644627134066e-01,-2.711528772078340421e-01,-2.509650007118046089e-01,-2.212690104840817906e-01,-1.858893659357083172e-01,-1.509106256291250225e-01,-1.224014225170952097e-01,-1.043887095481862565e-01,-9.778363033438133844e-02,-1.005149533093935565e-01,-1.086744248101059185e-01,-1.181282180613418414e-01,-1.258941748427730156e-01,-1.307207378369515394e-01,-1.327369783188274699e-01,-1.325701201694576004e-01,-1.305903091927458626e-01,-1.267375952671285777e-01,-1.208939050822126909e-01,-1.133818999330147431e-01,-1.051529681265237215e-01,-9.751717098034749787e-02,-9.162292067295725595e-02,-8.805282129919050904e-02,-8.676359158406848904e-02,-8.730866406075936392e-02,-8.910471618595777743e-02,-9.156142531477859392e-02,-9.407892364743407343e-02,-9.603975552268152749e-02,-9.689324781305093393e-02,-9.630646540445811365e-02,-9.426541866519656809e-02,-9.104577766154510476e-02,-8.709680467495678480e-02,-8.294641895559246025e-02,-7.915741684703676839e-02,-7.625124021696770560e-02,-7.452330621570958658e-02,-7.380661981144454042e-02,-7.335794245528265423e-02,-7.202120002553923095e-02,-6.866413692788683742e-02,-6.269333591013458162e-02,-5.437107808695719469e-02,-4.475806008985674239e-02,-3.532205147739948814e-02,-2.742235125171308199e-02,-2.189202343867828471e-02,-1.883044793992621688e-02,-1.760891672612828474e-02,-1.705136134521679364e-02,-1.574979158017391842e-02,-1.244945410290618573e-02,-6.389334505757521786e-03,2.529344494075273959e-03,1.379592853842819683e-02,2.648155791659980926e-02,3.943013464865657847e-02,5.140603708268772637e-02,6.128610786272004757e-02,6.836761071831412573e-02,7.270092134276154305e-02,7.522557782749675348e-02,7.753807802885247236e-02,8.133259354316542400e-02,8.778132531049133436e-02,9.718370692271545430e-02,1.090436073828748020e-01,1.224447828981419795e-01,1.364146507175928447e-01,1.500480038518500758e-01,1.624307010384668237e-01,1.726062819573217777e-01,1.797759973371453601e-01,1.836701575508594420e-01,1.848130171336331007e-01,1.844236896548907267e-01,1.839452495224702944e-01,1.844682117578864688e-01,1.863823238441502939e-01,1.894002869850133219e-01,1.928277471947886512e-01,1.958444935171993195e-01,1.976743748160836034e-01,1.976954938593665778e-01,1.955857103471228819e-01,1.914870070322879647e-01,1.860490110616836723e-01,1.802231050162383108e-01,1.748343469060695266e-01
1.000000000000000000e+00,-1.096797419429677671e-02,-9.203626056957412219e-03,-8.040871494848089371e-03,-7.270552585779581529e-03,-6.607740296310195965e-03,-5.917915277368165916e-03,-5.283204381617933112e-03,-4.854579371802323663e-03,-4.630778505806752710e-03,-4.372962810157196741e-03,-3.740082024156689711e-03,-2.526093237223889492e-03,-7.807066325721705776e-04,1.306012985779735243e-03,3.657175755394568434e-03,6.461026235499774985e-03,1.006205228024758223e-02,1.467725443727671032e-02,2.019674220177651927e-02,2.624718145057626517e-02,3.244255187055788275e-02,3.858100184677024092e-02,4.463086407114918303e-02,5.058120175193564494e-02,5.636148526787323337e-02,6.192689854602186073e-02,6.738925179777417729e-02,7.299486465237368937e-02,7.889649031842244087e-02,8.488345608297580280e-02,9.030989482725207407e-02,9.432657566997178222e-02,9.629313739840855702e-02,9.610939133854390359e-02,9.425894152708882978e-02,9.155447603671740264e-02,8.876018260396772996e-02,8.631408952454318328e-02,8.426936060712193755e-02,8.241991400305254123e-02,8.049509684590096248e-02,7.833973342065818357e-02,7.606799905396277595e-02,7.418281249600891525e-02,7.355825568499446687e-02,7.511715078399262835e-02,7.918484932445596369e-02,8.484604842887633058e-02,8.984363506121333109e-02,9.131040460711635498e-02,8.702523787449652215e-02,7.644756406093337897e-02,6.090962208057267707e-02,4.292625706029617322e-02,2.512966941796464931e-02,9.450077572544497359e-03,-3.151309072609990644e-03,-1.249810876130287053e-02,-1.885490046112276580e-02,-2.265292324948527461e-02,-2.435712311678104106e-02,-2.443024541137481589e-02,-2.331827218294995827e-02,-2.142181480969872209e-02,-1.907803580455794470e-02,-1.659001607760085539e-02,-1.428767769348994465e-02,-1.255070887995794748e-02,-1.174970013317578818e-02,-1.215273441739210709e-02,-1.388496775954824528e-02,-1.695010988043257893e-02,-2.122097445213768155e-02,-2.633117443899583854e-02,-3.155268161703678187e-02,-3.585504972322735989e-02,-3.825477049650843897e-02,-3.831117017182823770e-02,-3.643351563376824587e-02,-3.375257677231654346e-02,-3.164408255033497597e-02,-3.126464700121122514e-02,-3.340937999678659370e-02,-3.869546311058900956e-02,-4.782478580503068954e-02,-6.167936247486599521e-02,-8.116219684898172415e-02,-1.067869177291173310e-01,-1.379749008027443269e-01,-1.720137343971648858e-01,-2.028560107253961353e-01,-2.203211038990006421e-01,-2.104808829843689555e-01,-1.578065211263243173e-01,-4.909915555238091728e-02,1.214132475353087576e-01,3.470300419258232072e-01,6.053612343090488679e-01,8.589948254952994855e-01,1.061527565417257568e+00,1.168681647145958458e+00,1.151756866151170788e+00,1.008643544250192425e+00,7.673513054194386340e-01,4.792728301298212479e-01,2.037258775545085498e-01,-1.034831733745292942e-02,-1.379737507415820796e-01,-1.817475112699185880e-01,-1.651805977165012040e-01,-1.201471657410529553e-01,-7.461187975663051419e-02,-4.527690911195172280e-02,-3.646708604651314328e-02,-4.359458389958439928e-02,-5.828035543247571393e-02,-7.269054657338085146e-02,-8.195588135903279781e-02,-8.469583446872235022e-02,-8.224403064419850973e-02,-7.728027897816663883e-02,-7.247385292138679158e-02,-6.956181224555524345e-02,-6.904447522477777377e-02,-7.041774068105802198e-02,-7.267656050457108052e-02,-7.479413969113007932e-02,-7.600267035482122235e-02,-7.588178450403319786e-02,-7.436728362681691018e-02,-7.175268747762808541e-02,-6.864142384858856749e-02,-6.576925369641795083e-02,-6.371212639339306205e-02,-6.262363530748840668e-02,-6.217578893319836847e-02,-6.177125941520850150e-02,-6.091953885379599448e-02,-5.954311429674218059e-02,-5.801431508059127357e-02,-5.691381286148745888e-02,-5.669399625209940730e-02,-5.746546449988571698e-02,-5.899526880678542667e-02,-6.084425247383523638e-02,-6.251676168709356662e-02,-6.357148133817673574e-02,-6.373464391112815264e-02,-6.303885685881166490e-02,-6.189873523425920565e-02,-6.098714284562122001e-02,-6.089817762033962467e-02,-6.178054450643110512e-02,-6.320425196601116291e-02,-6.439457479844301613e-02,-6.471022075351047509e-02,-6.404230611889974445e-02,-6.284243117380934607e-02,-6.176623260868488452e-02,-6.122632399011504467e-02,-6.120677448627123707e-02,-6.143984624957002372e-02,-6.172188839965016272e-02,-6.205846633841585747e-02,-6.254651088401022574e-02,-6.317986994737510853e-02,-6.381551790179550154e-02,-6.433185676645943041e-02,-6.478752299115268787e-02,-6.538577005838117073e-02,-6.625601896304128546e-02,-6.725626672867968114e-02,-6.798678343825304005e-02,-6.801392978313094972e-02,-6.712399105178092074e-02,-6.541864410926846729e-02,-6.321812643710864044e-02,-6.090178079191316957e-02,-5.882981065889422018e-02,-5.735373121628863785e-02,-5.680332725403240690e-02,-5.737557795505857094e-02,-5.899474315748520076e-02,-6.129396406847003459e-02,-6.379169139441452641e-02,-6.616328168282004096e-02,-6.840109873423931564e-02,-7.073330154745552378e-02,-7.337414352180697541e-02,-7.631510822101547631e-02,-7.931465037261857531e-02,-8.206556818153294686e-02,-8.437425070703068186e-02,-8.619913480415358764e-02,-8.755366987111683208e-02,-8.842098525491851047e-02,-8.879576647329893990e-02,-8.879940889932304293e-02,-8.870448191207004618e-02,-8.877572642455341945e-02,-8.900672491177522017e-02,-8.894121388197180622e-02,-8.773035180870907002e-02,-8.442408603226073116e-02,-7.834372135743000731e-02,-6.935066656836810783e-02,-5.791789933640512089e-02,-4.502351003993470407e-02,-3.193251976646421103e-02,-1.991743800979779017e-02,-9.953068578147620735e-03,-2.453736353428551814e-03,2.830533292641535664e-03,6.666143948741873500e-03,9.970697365555350467e-03,1.340974585316684342e-02,1.717573779046708410e-02,2.105857930526020341e-02,2.471953082374055491e-02,2.794243287888183852e-02,3.068871329004242351e-02,3.299212466051697212e-02,3.487991564833770042e-02,3.642875012416206537e-02,3.785460467140720764e-02,3.945515641637981075e-02,4.137754023207278198e-02,4.340545816285458491e-02,4.499460116366535423e-02,4.557761100636566198e-02
1.000000000000000000e+00,-1.942417481321226380e-02,-1.812690241983635348e-02,-1.665780703587705844e-02,-1.482410004229842496e-02,-1.268636936980487885e-02,-1.052690312642665452e-02,-8.640203234054481471e-03,-7.167887205309464264e-03,-6.123405145000547327e-03,-5.539811122044020243e-03,-5.542247655884614127e-03,-6.222963991054132615e-03,-7.402641233672725869e-03,-8.493785998897810177e-03,-8.613893469731266975e-03,-6.896740440779340273e-03,-2.807663099352336860e-03,3.693689426710821191e-03,1.214773809267199155e-02,2.166708563674221016e-02,3.107101784406130635e-02,3.915362186920900295e-02,4.509639337601240722e-02,4.885134956435015913e-02,5.122487108826249275e-02,5.353519163740684539e-02,5.699746278467814758e-02,6.217169081309427414e-02,6.875496924157462053e-02,7.577579532069675383e-02,8.203104380411738172e-02,8.652401574387345862e-02,8.872392769811739133e-02,8.860699699454188671e-02,8.656118676587210015e-02,8.325498859270109853e-02,7.949841171818235186e-02,7.607779645372195199e-02,7.359341563767977934e-02,7.239684720647121541e-02,7.269030089569984698e-02,7.468727586072380908e-02,7.858817120960774616e-02,8.421293796964436640e-02,9.048085391196174221e-02,9.523197742840090740e-02,9.577854670428544159e-02,9.004828820033407288e-02,7.765872672569650026e-02,6.021524945126603690e-02,4.062904636093656735e-02,2.190012426839468493e-02,6.091742832387956122e-03,-6.030615474120897511e-03,-1.472940396963007270e-02,-2.077136071624118355e-02,-2.501382760105804598e-02,-2.821585443307715949e-02,-3.096812840099216757e-02,-3.361389547075420425e-02,-3.616953194092554363e-02,-3.836413948339056218e-02,-3.986203670231113633e-02,-4.055722821948701956e-02,-4.072203585033497275e-02,-4.088088941669779791e-02,-4.149750870698114269e-02,-4.271269891985126493e-02,-4.431131961283930193e-02,-4.588686712930504369e-02,-4.702154070678492281e-02,-4.735717348399997445e-02,-4.661453712543277977e-02,-4.470945213934826579e-02,-4.201018292005816862e-02,-3.958259971956533396e-02,-3.916563810302297471e-02,-4.271970746952739872e-02,-5.164976736942657187e-02,-6.606240273267455221e-02,-8.449834156980910727e-02,-1.044003230534521071e-01,-1.231944562224902284e-01,-1.394854647360304067e-01,-1.537271580990716424e-01,-1.679423355044863120e-01,-1.845308174180522176e-01,-2.046566552608082012e-01,-2.268942065408279529e-01,-2.466478367742244437e-01,-2.564424844632365308e-01,-2.467781388453863800e-01,-2.071788004312201115e-01,-1.274614048336847605e-01,2.358107865416238583e-04,1.781246549997942963e-01,3.984847449455742874e-01,6.401842786793036089e-01,8.686568412390024418e-01,1.041386055107777597e+00,1.118725624713662548e+00,1.076970908901480728e+00,9.185232423718321382e-01,6.741230961735592553e-01,3.949578571475627076e-01,1.369938007858312046e-01,-5.620450179015262088e-02,-1.650484489537428212e-01,-1.956609147401655036e-01,-1.724110756080349804e-01,-1.258281804099493084e-01,-8.152500178650798346e-02,-5.398938172723806439e-02,-4.608120411891798718e-02,-5.258511329675193136e-02,-6.518131836176691007e-02,-7.661296455438763864e-02,-8.292220795573114478e-02,-8.367979086007658329e-02,-8.081361641221625203e-02,-7.693347697326795298e-02,-7.398887150813318603e-02,-7.272615750346300700e-02,-7.289952409070918349e-02,-7.382060173072825526e-02,-7.480596423945257145e-02,-7.535190069231730015e-02,-7.515746473309813103e-02,-7.417079639447456130e-02,-7.265745260496832281e-02,-7.113648099989396123e-02,-7.010836575685365502e-02,-6.973118770485450812e-02,-6.971525101449109474e-02,-6.955131151116600297e-02,-6.890017811477733289e-02,-6.782842469080969938e-02,-6.671869512060817076e-02,-6.597997366452026946e-02,-6.584308299862530467e-02,-6.639351121486145035e-02,-6.771401734001160355e-02,-6.988632281428547310e-02,-7.277579941239752104e-02,-7.581289816163928885e-02,-7.806627018343217927e-02,-7.866090995568587874e-02,-7.725979970092837490e-02,-7.423818811787068206e-02,-7.042898519188790785e-02,-6.665947902982988227e-02,-6.342258994031897690e-02,-6.086636241326156410e-02,-5.902039978075866722e-02,-5.801213788217545603e-02,-5.806447505742955151e-02,-5.927737504050883954e-02,-6.140371249411120946e-02,-6.384091170727460018e-02,-6.586880974857609039e-02,-6.696616361771560999e-02,-6.701191235082488984e-02,-6.630276644381340179e-02,-6.543449317693088296e-02,-6.509988255836071658e-02,-6.581520739101286155e-02,-6.761859696631705718e-02,-6.989271472354595394e-02,-7.151368375646850739e-02,-7.138616385685624122e-02,-6.913222841100209737e-02,-6.548939409605326889e-02,-6.207182077944742304e-02,-6.055230618921354085e-02,-6.174463858994584664e-02,-6.516650349414000731e-02,-6.934642214636370372e-02,-7.263990777733995985e-02,-7.401216698455982679e-02,-7.333785847135022851e-02,-7.115909151312987957e-02,-6.820967689193405126e-02,-6.508328720652996335e-02,-6.219492141264900548e-02,-5.990793783270929179e-02,-5.861420768888612326e-02,-5.867542823271752750e-02,-6.028894274016996513e-02,-6.338703339535456394e-02,-6.761369587183704843e-02,-7.235081731598100308e-02,-7.677673715936596255e-02,-8.000442265432707034e-02,-8.134165222293682218e-02,-8.059593760222745484e-02,-7.823057917105608050e-02,-7.521445057453342298e-02,-7.259783266501840249e-02,-7.104023432630376944e-02,-7.056149343767373350e-02,-7.064628337527401047e-02,-7.059377155179523411e-02,-6.984245168356716105e-02,-6.806099765031280169e-02,-6.503615359796718898e-02,-6.057348797695289583e-02,-5.457224208525859876e-02,-4.721271876993555355e-02,-3.904259889190042632e-02,-3.081854945739238849e-02,-2.317639860750683040e-02,-1.635850181559437080e-02,-1.018269359812759567e-02,-4.242481903029267018e-03,1.834518130491276681e-03,8.229413927002693016e-03,1.489029149138164018e-02,2.152729318835214234e-02,2.762124053853356673e-02,3.251653159789142516e-02,3.564928910089967817e-02,3.683248245822308420e-02,3.641662537566379282e-02,3.517762823726968552e-02,3.395264549447257751e-02,3.324265209008216843e-02,3.306309300102223264e-02,3.315768154017634251e-02,3.339906054900883964e-02,3.403601498789984164e-02
